383013274319	2008
383013274320	2138
383013274321	2151
383013274322	2001
383013274323	1860
383013274324	1766
383013274325	1770
383013274326	1795
383013274327	1697
383013274328	1610
383013274329	1583
383013274330	1563
383013274331	1623
383013274332	1688
383013274333	1667
383013274334	1674
383013274335	1658
383013274336	1669
383013274337	1642
383013274338	1611
383013274339	1611
383013274340	1645
383013274341	1662
383013274342	1630
383013274343	1557
383013274344	1546
383013274345	1554
383013274346	1590
383013274347	1607
383013274348	1554
383013274349	1542
383013274350	1591
383013274351	1647
383013274352	1636
383013274353	1602
383013274354	1561
383013274355	1537
383013274356	1526
383013274357	1495
383013274358	1448
383013274359	1422
383013274360	1438
383013274361	1453
383013274362	1484
383013274363	1458
383013274364	1456
383013274365	1462
383013274366	1490
383013274367	1469
383013274368	1465
383013274369	1401
383013274370	1414
383013274371	1407
383013274372	1393
383013274373	1409
383013274374	1411
383013274375	1352
383013274376	1384
383013274377	1356
383013274378	1342
383013274379	1351
383013274380	1335
383013274381	1456
383013274382	1474
383013274383	1446
383013274384	1405
383013274385	1320
383013274386	1293
383013274387	1359
383013274388	1361
383013274389	1395
383013274390	1451
383013274391	1409
383013274392	1438
383013274393	1425
383013274394	1396
383013274395	1395
383013274396	1383
383013274397	1398
383013274398	1387
383013274399	1334
383013274400	1324
383013274401	1366
383013274402	1365
383013274403	1327
383013274404	1241
383013274405	1323
383013274406	1319
383013274407	1365
383013274408	1360
383013274409	1347
383013274410	1367
383013274411	1397
383013274412	1467
383013274413	1503
383013274414	1400
383013274415	1388
383013274416	1448
383013274417	1482
383013274418	1544
383013274419	1511
383013274420	1482
383013274421	1506
383013274422	1511
383013274423	1493
383013274424	1437
383013274425	1380
383013274426	1451
383013274427	1515
383013274428	1457
383013274429	1450
383013274430	1421
383013274431	1439
383013274432	1429
383013274433	1415
383013274434	1395
383013274435	1323
383013274436	1316
383013274437	1346
383013274438	1382
383013274439	1429
383013274440	1478
383013274441	1501
383013274442	1533
383013274443	1571
383013274444	1562
383013274445	1553
383013274446	1536
383013274447	1628
383013274448	1589
383013274449	1629
383013274450	1557
383013274451	1405
383013274452	1351
383013274453	1424
383013274454	1433
383013274455	1389
383013274456	1242
383013274457	1158
383013274458	1278
383013274459	1326
383013274460	1185
383013274461	1156
383013274462	1147
383013274463	1241
383013274464	1257
383013274465	1261
383013274466	1266
383013274467	1198
383013274468	1252
383013274469	1258
383013274470	1256
383013274471	1288
383013274472	1306
383013274473	1345
383013274474	1399
383013274475	1390
383013274476	1367
383013274477	1405
383013274478	1420
383013274479	1412
383013274480	1352
383013274481	1292
383013274482	1184
383013274483	1117
383013274484	1141
383013274485	1202
383013274486	1188
383013274487	1168
383013274488	1188
383013274489	1273
383013274490	1342
383013274491	1366
383013274492	1375
383013274493	1416
383013274494	1426
383013274495	1319
383013274496	1328
383013274497	1320
383013274498	1364
383013274499	1360
383013274500	1462
383013274501	1439
383013274502	1446
383013274503	1433
383013274504	1448
383013274505	1453
383013274506	1347
383013274507	1336
383013274508	1331
383013274509	1344
383013274510	1409
383013274511	1418
383013274512	1394
383013274513	1374
383013274514	1404
383013274515	1388
383013274516	1399
383013274517	1385
383013274518	1390
383013274519	1371
383013274520	1400
383013274521	1465
383013274522	1436
383013274523	1442
383013274524	1437
383013274525	1498
383013274526	1522
383013274527	1485
383013274528	1376
383013274529	1264
383013274530	1216
383013274531	1208
383013274532	1228
383013274533	1190
383013274534	1236
383013274535	1153
383013274536	1150
383013274537	946
383013274538	873
383013274539	993
383013274540	1392
383013274541	1374
383013274542	1207
383013274543	1391
383013274544	1438
383013274545	1452
383013274546	1461
383013274547	1534
383013274548	1442
383013274549	1337
383013274550	1016
383013274551	1215
383013274552	1161
383013274553	1017
383013274554	966
383013274555	898
383013274556	974
383013274557	965
383013274558	945
383013274559	809
383013274560	973
383013274561	856
383013274562	936
383013274563	1074
383013274564	1058
383013274565	1161
383013274566	1188
383013274567	1223
383013274568	1297
383013274569	1260
383013274570	1062
383013274571	1120
383013274572	984
383013274573	1106
383013274574	1299
383013274575	1350
383013274576	1316
383013274577	1281
383013274578	1394
383013274579	1444
383013274580	1648
383013274581	1776
383013274582	1784
383013274583	1695
383013274584	1653
383013274585	1684
383013274586	1641
383013274587	1415
383013274588	1396
383013274589	1396
383013274590	1881
383013274591	2008
383013274592	1855
383013274593	1859
383013274594	1946
383013274595	1975
383013274596	1869
383013274597	1651
383013274598	1371
383013274599	1318
383013274600	1503
383013274601	1678
383013274602	1817
383013274603	1611
383013274604	1631
383013274605	1456
383013274606	1406
383013274607	1181
383013274608	1087
383013274609	911
383013274610	1160
383013274611	1122
383013274612	1153
383013274613	908
383013274614	822
383013274615	1153
383013274616	1347
383013274617	1333
383013274618	1228
383013274619	0
383013274620	0
383013274621	508
383013274622	1048
383013274623	1653
383013274624	1779
383013274625	1735
383013274626	1806
383013274627	1549
383013274628	1289
383013274629	1553
383013274630	559
383013274631	0
383013274632	603
383013274633	1067
383013274634	249
383013274635	1437
383013274636	1860
383013274637	1935
383013274638	2319
383013274639	2389
383013274640	2327
383013274641	2638
383013274642	3018
383013274643	2905
383013274644	2592
383013274645	2109
383013274646	1810
383013274647	1377
383013274648	1334
383013274649	1625
383013274650	1662
383013274651	1612
383013274652	1884
383013274653	2428
383013274654	2411
383013274655	2136
383013274656	1651
383013274657	2486
383013274658	2337
383013274659	2340
383013274660	1120
383013274661	1391
383013274662	1560
383013274663	1812
383013274664	2243
383013274665	2755
383013274666	2951
383013274667	3183
383013274668	2818
383013274669	2930
383013274670	2556
383013274671	3051
383013274672	3200
383013274673	2049
383013274674	2306
383013274675	1966
383013274676	2023
383013274677	2005
383013274678	2160
383013274679	1491
383013274680	1323
383013274681	1286
383013274682	1705
383013274683	1632
383013274684	1019
383013274685	1055
383013274686	823
383013274687	1021
383013274688	939
383013274689	599
383013274690	436
383013274691	331
383013274692	630
383013274693	798
383013274694	580
383013274695	373
383013274696	575
383013274697	578
383013274698	359
383013274699	1007
383013274700	1058
383013274701	546
383013274702	1109
383013274703	927
383013274704	1257
383013274705	1223
383013274706	1097
383013274707	1025
383013274708	1237
383013274709	1549
383013274710	1321
383013274711	1495
383013274712	1362
383013274713	998
383013274714	1177
383013274715	1192
383013274716	1070
383013274717	1320
383013274718	1136
383013274719	1674
383013274720	1612
383013274721	1944
383013274722	1629
383013274723	1456
383013274724	1713
383013274725	1663
383013274726	1705
383013274727	1550
383013274728	1580
383013274729	1338
383013274730	1327
383013274731	1297
383013274732	1280
383013274733	1272
383013274734	1285
383013274735	1300
383013274736	1351
383013274737	1250
383013274738	1448
383013274739	1578
383013274740	1604
383013274741	1720
383013274742	1669
383013274743	1645
383013274744	1950
383013274745	2053
383013274746	2043
383013274747	2369
383013274748	2682
383013274749	2003
383013274750	1698
383013274751	1883
383013274752	1570
383013274753	1962
383013274754	2139
383013274755	2122
383013274756	2
383013274757	147
383013274758	266
383013274759	621
383013274760	1153
383013274761	1133
383013274762	1064
383013274763	802
383013274764	705
383013274765	634
383013274766	758
383013274767	1045
383013274768	1276
383013274769	1115
383013274770	1024
383013274771	1051
383013274772	1399
383013274773	1387
383013274774	1045
383013274775	898
383013274776	864
383013274777	1079
383013274778	881
383013274779	958
383013274780	1057
383013274781	999
383013274782	1000
383013274783	984
383013274784	850
383013274785	953
383013274786	844
383013274787	1063
383013274788	1396
383013274789	1387
383013274790	1451
383013274791	1510
383013274792	1036
383013274793	1639
383013274794	1759
383013274795	2403
383013274796	2680
383013274797	2216
383013274798	2144
383013274799	2534
383013274800	2503
383013274801	2228
383013274802	2500
383013274803	3387
383013274804	2739
383013274805	2663
383013274806	1318
383013274807	1
383013274808	0
383013274809	3
383013274810	1
383013274811	0
383013274812	0
383013274813	412
383013274814	1318
383013274815	2256
383013274816	3033
383013274817	2590
383013274818	3413
383013274819	2340
383013274820	2685
383013274821	2582
383013274822	2539
383013274823	3115
383013274824	3970
383013274825	4089
383013274826	4089
383013274827	4089
383013274828	4036
383013274829	2671
383013274830	1646
383013274831	1466
383013274832	1101
383013274833	1084
383013274834	905
383013274835	1533
383013274836	628
383013274837	972
383013274838	1187
383013274839	1194
383013274840	1194
383013274841	1701
383013274842	1947
383013274843	1354
383013274844	344
383013274845	521
383013274846	514
383013274847	0
383013274848	1
383013274849	1
383013274850	0
383013274851	1
383013274852	28
383013274853	2
383013274854	522
383013274855	1458
383013274856	1135
383013274857	2
383013274858	2
383013274859	0
383013274860	326
383013274861	624
383013274862	963
383013274863	1139
383013274864	1335
383013274865	1424
383013274866	1491
383013274867	1630
383013274868	1720
383013274869	1994
383013274870	1981
383013274871	1928
383013274872	1938
383013274873	2166
383013274874	2106
383013274875	1790
383013274876	1659
383013274877	1929
383013274878	1706
383013274879	1863
383013274880	2488
383013274881	2134
383013274882	1698
383013274883	984
383013274884	382
383013274885	0
383013274886	2
383013274887	0
383013274888	0
383013274889	0
383013274890	844
383013274891	1143
383013274892	783
383013274893	310
383013274894	900
383013274895	1612
383013274896	2212
383013274897	2874
383013274898	2680
383013274899	3032
383013274900	4089
383013274901	4089
383013274902	4088
383013274903	4087
383013274904	4087
383013274905	3942
383013274906	2865
383013274907	2499
383013274908	1826
383013274909	1092
383013274910	924
383013274911	730
383013274912	851
383013274913	672
383013274914	464
383013274915	566
383013274916	1
383013274917	0
383013274918	0
383013274919	2
383013274920	102
383013274921	443
383013274922	320
383013274923	390
383013274924	752
383013274925	1148
383013274926	1341
383013274927	1695
383013274928	1396
383013274929	1480
383013274930	1456
383013274931	1645
383013274932	1808
383013274933	1983
383013274934	2083
383013274935	2026
383013274936	2006
383013274937	1742
383013274938	1644
383013274939	1621
383013274940	1641
383013274941	1788
383013274942	1599
383013274943	1513
383013274944	1596
383013274945	1577
383013274946	1510
383013274947	1469
383013274948	1476
383013274949	1448
383013274950	1474
383013274951	1335
383013274952	1237
383013274953	1089
383013274954	911
383013274955	887
383013274956	1040
383013274957	1137
383013274958	1342
383013274959	1493
383013274960	1637
383013274961	1636
383013274962	1500
383013274963	1388
383013274964	1429
383013274965	1395
383013274966	1321
383013274967	1319
383013274968	1249
383013274969	1113
383013274970	1245
383013274971	1389
383013274972	1404
383013274973	1175
383013274974	1233
383013274975	1256
383013274976	1093
383013274977	1118
383013274978	1355
383013274979	517
383013274980	373
383013274981	727
383013274982	1966
383013274983	1095
383013274984	1149
383013274985	703
383013274986	1101
383013274987	2257
383013274988	1962
383013274989	1693
383013274990	1374
383013274991	1188
383013274992	933
383013274993	1070
383013274994	1112
383013274995	1193
383013274996	1398
383013274997	1442
383013274998	904
383013274999	0
383013275000	0
383013275001	21
383013275002	382
383013275003	1121
383013275004	1685
383013275005	1631
383013275006	1648
383013275007	1638
383013275008	1752
383013275009	1780
383013275010	1850
383013275011	1824
383013275012	1769
383013275013	1778
383013275014	1761
383013275015	1862
383013275016	1884
383013275017	1786
383013275018	1856
383013275019	1868
383013275020	1871
383013275021	1786
383013275022	1781
383013275023	1720
383013275024	1764
383013275025	1771
383013275026	1770
383013275027	1799
383013275028	1697
383013275029	1662
383013275030	1649
383013275031	1731
383013275032	1625
383013275033	1446
383013275034	1471
383013275035	1556
383013275036	1654
383013275037	1555
383013275038	1616
383013275039	1653
383013275040	1540
383013275041	1329
383013275042	1295
383013275043	1245
383013275044	1112
383013275045	980
383013275046	1075
383013275047	1154
383013275048	1056
383013275049	1095
383013275050	1149
383013275051	1235
383013275052	1378
383013275053	1463
383013275054	1503
383013275055	1397
383013275056	1477
383013275057	1530
383013275058	1481
383013275059	1642
383013275060	1626
383013275061	1252
383013275062	1234
383013275063	1174
383013275064	1138
383013275065	1295
383013275066	1195
383013275067	1118
383013275068	1128
383013275069	1080
383013275070	1154
383013275071	1205
383013275072	1208
383013275073	1126
383013275074	1066
383013275075	1178
383013275076	1159
383013275077	1164
383013275078	1408
383013275079	1231
383013275080	1140
383013275081	1427
383013275082	1483
383013275083	1480
383013275084	1398
383013275085	1433
383013275086	1232
383013275087	1334
383013275088	1402
383013275089	1363
383013275090	1365
383013275091	1382
383013275092	1342
383013275093	1454
383013275094	1449
383013275095	1390
383013275096	1473
383013275097	1554
383013275098	1456
383013275099	1480
383013275100	1457
383013275101	1362
383013275102	1351
383013275103	1378
383013275104	1539
383013275105	1668
383013275106	1771
383013275107	1717
383013275108	1786
383013275109	1602
383013275110	1725
383013275111	1865
383013275112	1211
383013275113	1766
383013275114	1712
383013275115	1575
383013275116	1400
383013275117	1265
383013275118	1059
383013275119	1330
383013275120	1036
383013275121	1262
383013275122	1556
383013275123	1064
383013275124	1149
383013275125	1262
383013275126	1425
383013275127	1606
383013275128	1469
383013275129	1086
383013275130	1084
383013275131	1143
383013275132	1450
383013275133	1471
383013275134	1167
383013275135	1513
383013275136	1762
383013275137	1506
383013275138	1332
383013275139	1228
383013275140	1172
383013275141	1308
383013275142	1271
383013275143	1209
383013275144	1116
383013275145	933
383013275146	966
383013275147	756
383013275148	797
383013275149	832
383013275150	902
383013275151	1421
383013275152	1158
383013275153	1585
383013275154	2076
383013275155	2130
383013275156	1476
383013275157	1426
383013275158	1354
383013275159	1141
383013275160	957
383013275161	917
383013275162	1230
383013275163	1416
383013275164	1304
383013275165	1085
383013275166	836
383013275167	1006
383013275168	1217
383013275169	1293
383013275170	1497
383013275171	1454
383013275172	317
383013275173	939
383013275174	1043
383013275175	1130
383013275176	1198
383013275177	1100
383013275178	886
383013275179	1341
383013275180	1581
383013275181	1407
383013275182	1573
383013275183	1409
383013275184	1540
383013275185	1553
383013275186	1512
383013275187	1736
383013275188	1675
383013275189	1812
383013275190	1558
383013275191	1819
383013275192	1643
383013275193	1685
383013275194	1802
383013275195	1515
383013275196	1311
383013275197	1355
383013275198	1159
383013275199	1383
383013275200	1345
383013275201	1016
383013275202	810
383013275203	1139
383013275204	1371
383013275205	1246
383013275206	1007
383013275207	1339
383013275208	1249
383013275209	1933
383013275210	1843
383013275211	1593
383013275212	1897
383013275213	1697
383013275214	1875
383013275215	1210
383013275216	1607
383013275217	1416
383013275218	1693
383013275219	2712
383013275220	2461
383013275221	2308
383013275222	2202
383013275223	1804
383013275224	1957
383013275225	1948
383013275226	2002
383013275227	1994
383013275228	1654
383013275229	1687
383013275230	1430
383013275231	1567
383013275232	1358
383013275233	1504
383013275234	1275
383013275235	1345
383013275236	1385
383013275237	1471
383013275238	1807
383013275239	1829
383013275240	1587
383013275241	1786
383013275242	1882
383013275243	1677
383013275244	1911
383013275245	2079
383013275246	2286
383013275247	2538
383013275248	3108
383013275249	2970
383013275250	2515
383013275251	1831
383013275252	1476
383013275253	1284
383013275254	1183
383013275255	993
383013275256	1043
383013275257	790
383013275258	644
383013275259	573
383013275260	623
383013275261	528
383013275262	595
383013275263	661
383013275264	261
383013275265	242
383013275266	327
383013275267	256
383013275268	442
383013275269	0
383013275270	0
383013275271	13
383013275272	319
383013275273	443
383013275274	535
383013275275	744
383013275276	1171
383013275277	1133
383013275278	1198
383013275279	1207
383013275280	932
383013275281	1059
383013275282	1082
383013275283	1297
383013275284	1267
383013275285	1269
383013275286	1317
383013275287	1293
383013275288	1223
383013275289	1190
383013275290	1265
383013275291	1211
383013275292	1206
383013275293	1267
383013275294	1615
383013275295	1676
383013275296	1495
383013275297	1456
383013275298	1470
383013275299	1413
383013275300	1489
383013275301	1525
383013275302	1590
383013275303	1736
383013275304	1713
383013275305	1546
383013275306	1629
383013275307	1448
383013275308	1347
383013275309	1522
383013275310	1962
383013275311	1997
383013275312	1936
383013275313	1590
383013275314	1308
383013275315	1447
383013275316	919
383013275317	1189
383013275318	1338
383013275319	1293
383013275320	1099
383013275321	1092
383013275322	1084
383013275323	818
383013275324	178
383013275325	104
383013275326	395
383013275327	271
383013275328	0
383013275329	19
383013275330	0
383013275331	0
383013275332	1
383013275333	0
383013275334	1
383013275335	0
383013275336	0
383013275337	2
383013275338	451
383013275339	1663
383013275340	2499
383013275341	2581
383013275342	3040
383013275343	3172
383013275344	2593
383013275345	2479
383013275346	2921
383013275347	2921
383013275348	3173
383013275349	4090
383013275350	4090
383013275351	4090
383013275352	3646
383013275353	3030
383013275354	2302
383013275355	2126
383013275356	2006
383013275357	2334
383013275358	3123
383013275359	2592
383013275360	2929
383013275361	3197
383013275362	2911
383013275363	2791
383013275364	2742
383013275365	3150
383013275366	2686
383013275367	3446
383013275368	3259
383013275369	2401
383013275370	1595
383013275371	942
383013275372	743
383013275373	97
383013275374	0
383013275375	0
383013275376	0
383013275377	0
383013275378	4
383013275379	0
383013275380	0
383013275381	0
383013275382	269
383013275383	1387
383013275384	776
383013275385	933
383013275386	240
383013275387	795
383013275388	1422
383013275389	1816
383013275390	2307
383013275391	2559
383013275392	2647
383013275393	2596
383013275394	2556
383013275395	2241
383013275396	2132
383013275397	1673
383013275398	1441
383013275399	1960
383013275400	2023
383013275401	1912
383013275402	1870
383013275403	2133
383013275404	1852
383013275405	2265
383013275406	2437
383013275407	1643
383013275408	1408
383013275409	1231
383013275410	1632
383013275411	1708
383013275412	1854
383013275413	2226
383013275414	2296
383013275415	2572
383013275416	2902
383013275417	2702
383013275418	2471
383013275419	1699
383013275420	1482
383013275421	2409
383013275422	3503
383013275423	4089
383013275424	4090
383013275425	4058
383013275426	1546
383013275427	1363
383013275428	1018
383013275429	1804
383013275430	1619
383013275431	1824
383013275432	1780
383013275433	1481
383013275434	1284
383013275435	1441
383013275436	1421
383013275437	1335
383013275438	1103
383013275439	1228
383013275440	1389
383013275441	1633
383013275442	1522
383013275443	1621
383013275444	1462
383013275445	1097
383013275446	649
383013275447	237
383013275448	80
383013275449	0
383013275450	0
383013275451	0
383013275452	49
383013275453	496
383013275454	484
383013275455	925
383013275456	1453
383013275457	1234
383013275458	1217
383013275459	1411
383013275460	1762
383013275461	1510
383013275462	1555
383013275463	1719
383013275464	1809
383013275465	1816
383013275466	1686
383013275467	1517
383013275468	1486
383013275469	1430
383013275470	1582
383013275471	1734
383013275472	1701
383013275473	1780
383013275474	1629
383013275475	1568
383013275476	1628
383013275477	1590
383013275478	1363
383013275479	1541
383013275480	1456
383013275481	1492
383013275482	1422
383013275483	1396
383013275484	1328
383013275485	1188
383013275486	1251
383013275487	1336
383013275488	1464
383013275489	1462
383013275490	1376
383013275491	1348
383013275492	1450
383013275493	1456
383013275494	1422
383013275495	1256
383013275496	1518
383013275497	1435
383013275498	1520
383013275499	1370
383013275500	1228
383013275501	1244
383013275502	1348
383013275503	1386
383013275504	1295
383013275505	1258
383013275506	1277
383013275507	1392
383013275508	1505
383013275509	1393
383013275510	1203
383013275511	1088
383013275512	1074
383013275513	976
383013275514	899
383013275515	895
383013275516	1117
383013275517	1276
383013275518	796
383013275519	887
383013275520	1029
383013275521	1189
383013275522	1585
383013275523	1800
383013275524	1923
383013275525	1979
383013275526	1955
383013275527	2358
383013275528	2224
383013275529	2147
383013275530	1279
383013275531	1298
383013275532	1238
383013275533	1134
383013275534	1041
383013275535	1297
383013275536	1469
383013275537	1282
383013275538	1253
383013275539	1292
383013275540	1072
383013275541	978
383013275542	1451
383013275543	1372
383013275544	1398
383013275545	1307
383013275546	1388
383013275547	1390
383013275548	1308
383013275549	1361
383013275550	1434
383013275551	1442
383013275552	1415
383013275553	1424
383013275554	1416
383013275555	1394
383013275556	1422
383013275557	1440
383013275558	1416
383013275559	1408
383013275560	1390
383013275561	1431
383013275562	1441
383013275563	1635
383013275564	1749
383013275565	1660
383013275566	1555
383013275567	1512
383013275568	1460
383013275569	1633
383013275570	1573
383013275571	1441
383013275572	1698
383013275573	1230
383013275574	1018
383013275575	1143
383013275576	851
383013275577	1115
383013275578	1484
383013275579	1585
383013275580	1470
383013275581	1672
383013275582	1696
383013275583	1166
383013275584	802
383013275585	612
383013275586	609
383013275587	581
383013275588	285
383013275589	928
383013275590	1440
383013275591	1466
383013275592	1071
383013275593	1651
383013275594	1262
383013275595	1017
383013275596	1657
383013275597	1758
383013275598	1593
383013275599	1741
383013275600	1602
383013275601	1701
383013275602	1634
383013275603	1198
383013275604	1814
383013275605	1768
383013275606	1437
383013275607	1593
383013275608	1854
383013275609	1638
383013275610	1501
383013275611	1382
383013275612	1742
383013275613	1738
383013275614	1592
383013275615	1490
383013275616	1512
383013275617	1062
383013275618	1196
383013275619	1080
383013275620	699
383013275621	429
383013275622	250
383013275623	264
383013275624	157
383013275625	277
383013275626	341
383013275627	695
383013275628	664
383013275629	873
383013275630	660
383013275631	485
383013275632	874
383013275633	1079
383013275634	1365
383013275635	1694
383013275636	2044
383013275637	2244
383013275638	2390
383013275639	2767
383013275640	2358
383013275641	1981
383013275642	1505
383013275643	1112
383013275644	1337
383013275645	997
383013275646	708
383013275647	834
383013275648	396
383013275649	450
383013275650	920
383013275651	800
383013275652	638
383013275653	901
383013275654	1199
383013275655	1376
383013275656	1542
383013275657	1673
383013275658	1637
383013275659	1658
383013275660	1467
383013275661	1381
383013275662	1456
383013275663	1394
383013275664	1360
383013275665	1329
383013275666	1466
383013275667	1648
383013275668	1918
383013275669	1985
383013275670	2137
383013275671	2166
383013275672	2159
383013275673	2159
383013275674	2399
383013275675	2779
383013275676	2868
383013275677	3077
383013275678	1431
383013275679	1068
383013275680	1409
383013275681	1842
383013275682	2038
383013275683	1826
383013275684	2575
383013275685	3861
383013275686	2627
383013275687	1719
383013275688	718
383013275689	156
383013275690	1
383013275691	96
383013275692	0
383013275693	1
383013275694	1
383013275695	0
383013275696	508
383013275697	967
383013275698	1136
383013275699	574
383013275700	386
383013275701	548
383013275702	577
383013275703	1440
383013275704	1435
383013275705	1667
383013275706	2100
383013275707	2016
383013275708	2035
383013275709	1875
383013275710	1519
383013275711	1493
383013275712	1417
383013275713	1351
383013275714	958
383013275715	926
383013275716	1034
383013275717	1392
383013275718	1318
383013275719	952
383013275720	1075
383013275721	1300
383013275722	1220
383013275723	1329
383013275724	1535
383013275725	1376
383013275726	1330
383013275727	1603
383013275728	1702
383013275729	1955
383013275730	2183
383013275731	2434
383013275732	2257
383013275733	1960
383013275734	1830
383013275735	1997
383013275736	1838
383013275737	1580
383013275738	1454
383013275739	1617
383013275740	1664
383013275741	1515
383013275742	1374
383013275743	1202
383013275744	948
383013275745	785
383013275746	701
383013275747	935
383013275748	1258
383013275749	1478
383013275750	1520
383013275751	1316
383013275752	1098
383013275753	1513
383013275754	1986
383013275755	1912
383013275756	1245
383013275757	886
383013275758	1177
383013275759	1710
383013275760	2343
383013275761	2862
383013275762	3043
383013275763	2885
383013275764	2389
383013275765	2166
383013275766	1893
383013275767	1665
383013275768	1569
383013275769	1516
383013275770	1306
383013275771	1331
383013275772	1302
383013275773	1281
383013275774	1164
383013275775	1162
383013275776	1114
383013275777	1050
383013275778	1034
383013275779	1016
383013275780	949
383013275781	882
383013275782	821
383013275783	856
383013275784	956
383013275785	1100
383013275786	1257
383013275787	1562
383013275788	1854
383013275789	2085
383013275790	2184
383013275791	2023
383013275792	1703
383013275793	1523
383013275794	1387
383013275795	1262
383013275796	1229
383013275797	1200
383013275798	1213
383013275799	1292
383013275800	1239
383013275801	1201
383013275802	1088
383013275803	1094
383013275804	1112
383013275805	1045
383013275806	1082
383013275807	1044
383013275808	1161
383013275809	1257
383013275810	1329
383013275811	1357
383013275812	1290
383013275813	1321
383013275814	1153
383013275815	1051
383013275816	1197
383013275817	1282
383013275818	1382
383013275819	1420
383013275820	1444
383013275821	1367
383013275822	1408
383013275823	1384
383013275824	1435
383013275825	1480
383013275826	1537
383013275827	1591
383013275828	1563
383013275829	1652
383013275830	1730
383013275831	1653
383013275832	1538
383013275833	1417
383013275834	1415
383013275835	1493
383013275836	1497
383013275837	1216
383013275838	966
383013275839	802
383013275840	897
383013275841	829
383013275842	983
383013275843	1197
383013275844	1361
383013275845	1394
383013275846	1311
383013275847	1190
383013275848	1136
383013275849	1193
383013275850	1341
383013275851	1396
383013275852	1394
383013275853	1342
383013275854	1249
383013275855	1189
383013275856	1054
383013275857	948
383013275858	923
383013275859	1039
383013275860	1069
383013275861	1133
383013275862	1016
383013275863	1102
383013275864	1169
383013275865	995
383013275866	991
383013275867	826
383013275868	895
383013275869	1019
383013275870	1317
383013275871	1541
383013275872	1367
383013275873	1381
383013275874	1147
383013275875	1074
383013275876	1181
383013275877	1278
383013275878	1416
383013275879	1321
383013275880	1189
383013275881	1180
383013275882	1200
383013275883	1119
383013275884	1246
383013275885	1433
383013275886	1657
383013275887	1643
383013275888	1610
383013275889	1595
383013275890	1628
383013275891	1653
383013275892	1532
383013275893	1562
383013275894	1333
383013275895	1320
383013275896	1312
383013275897	1423
383013275898	1393
383013275899	1455
383013275900	1491
383013275901	1473
383013275902	1476
383013275903	1455
383013275904	1460
383013275905	1468
383013275906	1523
383013275907	1468
383013275908	1457
383013275909	1208
383013275910	1414
383013275911	1380
383013275912	1488
383013275913	1401
383013275914	1320
383013275915	1250
383013275916	1223
383013275917	1206
383013275918	1165
383013275919	1054
383013275920	1192
383013275921	1224
383013275922	1327
383013275923	1391
383013275924	1352
383013275925	1319
383013275926	1338
383013275927	1410
383013275928	1369
383013275929	1263
383013275930	1357
383013275931	1405
383013275932	1458
383013275933	1524
383013275934	1436
383013275935	1292
383013275936	1200
383013275937	1146
383013275938	1050
383013275939	1042
383013275940	1137
383013275941	1144
383013275942	1133
383013275943	1282
383013275944	1211
383013275945	1373
383013275946	1516
383013275947	1592
383013275948	1429
383013275949	1566
383013275950	1549
383013275951	1389
383013275952	1276
383013275953	1400
383013275954	1366
383013275955	1436
383013275956	1285
383013275957	1320
383013275958	1436
383013275959	1079
383013275960	1355
383013275961	1469
383013275962	1300
383013275963	1248
383013275964	1187
383013275965	1285
383013275966	1344
383013275967	1397
383013275968	1508
383013275969	1556
383013275970	1633
383013275971	1829
383013275972	1751
383013275973	1784
383013275974	1742
383013275975	1641
383013275976	1605
383013275977	1347
383013275978	1275
383013275979	1354
383013275980	1302
383013275981	1072
383013275982	982
383013275983	985
383013275984	902
383013275985	838
383013275986	801
383013275987	906
383013275988	1061
383013275989	1167
383013275990	1034
383013275991	1118
383013275992	1175
383013275993	1318
383013275994	1446
383013275995	1692
383013275996	1809
383013275997	1722
383013275998	1737
383013275999	1427
383013276000	1380
383013276001	1595
383013276002	1668
383013276003	2045
383013276004	1953
383013276005	1991
383013276006	1988
383013276007	1816
383013276008	1853
383013276009	1767
383013276010	1824
383013276011	1706
383013276012	1509
383013276013	1668
383013276014	1657
383013276015	1336
383013276016	1147
383013276017	1258
383013276018	1356
383013276019	1412
383013276020	1432
383013276021	1265
383013276022	1071
383013276023	823
383013276024	928
383013276025	985
383013276026	1127
383013276027	1233
383013276028	1299
383013276029	1295
383013276030	1297
383013276031	1283
383013276032	1211
383013276033	1087
383013276034	1095
383013276035	1090
383013276036	1098
383013276037	1112
383013276038	1152
383013276039	1182
383013276040	1237
383013276041	1311
383013276042	1357
383013276043	1259
383013276044	1270
383013276045	1300
383013276046	1268
383013276047	1246
383013276048	1171
383013276049	1080
383013276050	931
383013276051	1052
383013276052	1079
383013276053	1248
383013276054	1688
383013276055	1781
383013276056	1627
383013276057	1645
383013276058	1578
383013276059	1594
383013276060	1741
383013276061	1862
383013276062	1873
383013276063	1830
383013276064	1670
383013276065	1465
383013276066	1643
383013276067	1832
383013276068	1598
383013276069	1441
383013276070	1439
383013276071	1416
383013276072	1351
383013276073	1159
383013276074	1148
383013276075	1311
383013276076	1562
383013276077	1545
383013276078	1600
383013276079	1363
383013276080	1416
383013276081	1731
383013276082	1981
383013276083	2485
383013276084	2912
383013276085	2517
383013276086	2094
383013276087	1738
383013276088	1426
383013276089	1315
383013276090	1185
383013276091	1178
383013276092	1112
383013276093	1171
383013276094	1452
383013276095	1250
383013276096	1391
383013276097	1247
383013276098	1298
383013276099	1108
383013276100	695
383013276101	626
383013276102	899
383013276103	1352
383013276104	1660
383013276105	1989
383013276106	2174
383013276107	2037
383013276108	1382
383013276109	972
383013276110	1211
383013276111	1530
383013276112	1960
383013276113	1331
383013276114	1043
383013276115	1057
383013276116	834
383013276117	654
383013276118	242
383013276119	57
383013276120	0
383013276121	172
383013276122	202
383013276123	508
383013276124	933
383013276125	1350
383013276126	1678
383013276127	1459
383013276128	1195
383013276129	1270
383013276130	1412
383013276131	1531
383013276132	1584
383013276133	1305
383013276134	1114
383013276135	993
383013276136	838
383013276137	970
383013276138	1164
383013276139	1283
383013276140	1436
383013276141	1470
383013276142	1454
383013276143	1877
383013276144	1680
383013276145	1430
383013276146	1374
383013276147	1314
383013276148	1463
383013276149	1743
383013276150	1834
383013276151	1863
383013276152	1774
383013276153	1711
383013276154	1683
383013276155	1897
383013276156	2098
383013276157	2203
383013276158	2099
383013276159	2079
383013276160	2096
383013276161	2209
383013276162	2321
383013276163	2221
383013276164	2117
383013276165	1961
383013276166	1721
383013276167	1782
383013276168	1699
383013276169	1562
383013276170	1352
383013276171	1030
383013276172	631
383013276173	1
383013276174	135
383013276175	640
383013276176	828
383013276177	922
383013276178	1118
383013276179	1088
383013276180	944
383013276181	949
383013276182	1023
383013276183	1167
383013276184	1113
383013276185	935
383013276186	460
383013276187	279
383013276188	442
383013276189	403
383013276190	856
383013276191	1253
383013276192	1790
383013276193	2172
383013276194	2036
383013276195	1944
383013276196	1712
383013276197	1580
383013276198	1429
383013276199	1357
383013276200	1263
383013276201	1188
383013276202	1236
383013276203	1301
383013276204	1173
383013276205	1229
383013276206	852
383013276207	993
383013276208	942
383013276209	959
383013276210	1141
383013276211	1382
383013276212	1446
383013276213	1420
383013276214	1240
383013276215	1014
383013276216	730
383013276217	504
383013276218	582
383013276219	429
383013276220	0
383013276221	0
383013276222	311
383013276223	252
383013276224	133
383013276225	0
383013276226	0
383013276227	122
383013276228	369
383013276229	779
383013276230	1051
383013276231	1504
383013276232	1873
383013276233	1997
383013276234	1989
383013276235	2088
383013276236	1971
383013276237	1623
383013276238	1297
383013276239	1113
383013276240	896
383013276241	877
383013276242	799
383013276243	915
383013276244	1286
383013276245	1666
383013276246	1756
383013276247	1893
383013276248	2144
383013276249	2611
383013276250	2526
383013276251	2000
383013276252	1641
383013276253	1538
383013276254	1917
383013276255	2542
383013276256	2540
383013276257	2448
383013276258	2202
383013276259	2734
383013276260	2539
383013276261	2352
383013276262	2197
383013276263	1533
383013276264	1181
383013276265	1039
383013276266	1371
383013276267	1540
383013276268	2218
383013276269	2678
383013276270	2726
383013276271	2641
383013276272	2488
383013276273	2391
383013276274	2288
383013276275	2090
383013276276	1807
383013276277	1868
383013276278	1970
383013276279	2084
383013276280	1954
383013276281	1879
383013276282	1667
383013276283	1615
383013276284	1480
383013276285	1383
383013276286	1160
383013276287	965
383013276288	1362
383013276289	1444
383013276290	1636
383013276291	1534
383013276292	1779
383013276293	1478
383013276294	1456
383013276295	1362
383013276296	1383
383013276297	1724
383013276298	1896
383013276299	1845
383013276300	2231
383013276301	1911
383013276302	1788
383013276303	1650
383013276304	1401
383013276305	1247
383013276306	1230
383013276307	1113
383013276308	988
383013276309	1190
383013276310	1152
383013276311	884
383013276312	783
383013276313	695
383013276314	905
383013276315	902
383013276316	915
383013276317	799
383013276318	1008
383013276319	1007
383013276320	871
383013276321	1088
383013276322	922
383013276323	638
383013276324	658
383013276325	840
383013276326	1053
383013276327	1118
383013276328	1281
383013276329	1450
383013276330	1369
383013276331	1318
383013276332	1317
383013276333	1364
383013276334	1498
383013276335	1560
383013276336	1558
383013276337	1524
383013276338	1463
383013276339	1474
383013276340	1357
383013276341	1287
383013276342	761
383013276343	1203
383013276344	995
383013276345	932
383013276346	859
383013276347	776
383013276348	745
383013276349	874
383013276350	883
383013276351	1018
383013276352	1094
383013276353	1150
383013276354	938
383013276355	940
383013276356	1047
383013276357	1284
383013276358	1253
383013276359	1273
383013276360	1376
383013276361	1515
383013276362	1616
383013276363	1641
383013276364	1724
383013276365	1705
383013276366	1738
383013276367	1853
383013276368	1944
383013276369	1889
383013276370	1904
383013276371	2063
383013276372	2146
383013276373	1994
383013276374	1892
383013276375	1799
383013276376	1832
383013276377	1687
383013276378	1625
383013276379	1559
383013276380	1609
383013276381	1500
383013276382	1466
383013276383	1415
383013276384	1304
383013276385	1120
383013276386	1085
383013276387	1021
383013276388	1066
383013276389	1068
383013276390	1096
383013276391	1251
383013276392	1231
383013276393	1210
383013276394	1230
383013276395	1363
383013276396	1537
383013276397	1650
383013276398	1733
383013276399	1532
383013276400	1466
383013276401	1349
383013276402	1384
383013276403	1453
383013276404	1338
383013276405	1311
383013276406	1362
383013276407	1300
383013276408	1144
383013276409	1166
383013276410	1208
383013276411	1406
383013276412	1334
383013276413	1347
383013276414	1239
383013276415	1303
383013276416	1320
383013276417	1293
383013276418	1140
383013276419	1356
383013276420	1367
383013276421	1274
383013276422	1592
383013276423	1592
383013276424	1467
383013276425	1434
383013276426	1284
383013276427	1240
383013276428	1219
383013276429	1146
383013276430	1234
383013276431	1327
383013276432	1372
383013276433	1302
383013276434	1333
383013276435	1626
383013276436	1179
383013276437	1167
383013276438	790
383013276439	723
383013276440	669
383013276441	645
383013276442	745
383013276443	585
383013276444	655
383013276445	454
383013276446	521
383013276447	546
383013276448	874
383013276449	1140
383013276450	1161
383013276451	1444
383013276452	1452
383013276453	729
383013276454	566
383013276455	508
383013276456	439
383013276457	786
383013276458	1552
383013276459	1909
383013276460	2028
383013276461	2218
383013276462	2466
383013276463	2581
383013276464	2440
383013276465	2315
383013276466	2194
383013276467	1974
383013276468	1684
383013276469	1455
383013276470	1363
383013276471	1341
383013276472	1387
383013276473	1492
383013276474	1632
383013276475	1816
383013276476	1714
383013276477	1689
383013276478	1726
383013276479	1677
383013276480	1665
383013276481	1699
383013276482	1918
383013276483	1967
383013276484	1922
383013276485	1846
383013276486	1954
383013276487	1820
383013276488	1718
383013276489	1680
383013276490	1446
383013276491	1219
383013276492	1068
383013276493	1058
383013276494	1374
383013276495	1466
383013276496	1582
383013276497	1592
383013276498	1199
383013276499	1126
383013276500	1056
383013276501	995
383013276502	1035
383013276503	987
383013276504	966
383013276505	930
383013276506	1010
383013276507	998
383013276508	976
383013276509	1132
383013276510	1198
383013276511	1190
383013276512	1152
383013276513	1193
383013276514	1306
383013276515	1443
383013276516	1489
383013276517	1408
383013276518	1380
383013276519	1419
383013276520	1417
383013276521	1493
383013276522	1532
383013276523	1618
383013276524	1619
383013276525	1633
383013276526	1584
383013276527	1547
383013276528	1495
383013276529	1434
383013276530	1453
383013276531	1442
383013276532	1338
383013276533	1318
383013276534	1305
383013276535	1482
383013276536	1550
383013276537	1633
383013276538	1516
383013276539	1496
383013276540	1647
383013276541	1592
383013276542	1748
383013276543	1770
383013276544	2145
383013276545	2314
383013276546	2173
383013276547	1955
383013276548	1991
383013276549	1847
383013276550	1794
383013276551	1788
383013276552	1697
383013276553	1721
383013276554	1116
383013276555	1091
383013276556	1064
383013276557	835
383013276558	794
383013276559	787
383013276560	897
383013276561	752
383013276562	731
383013276563	856
383013276564	867
383013276565	1022
383013276566	1117
383013276567	1083
383013276568	873
383013276569	1024
383013276570	1073
383013276571	1312
383013276572	1487
383013276573	1215
383013276574	1145
383013276575	982
383013276576	741
383013276577	909
383013276578	827
383013276579	853
383013276580	1036
383013276581	1078
383013276582	1026
383013276583	1085
383013276584	1138
383013276585	1214
383013276586	1284
383013276587	1238
383013276588	1153
383013276589	1192
383013276590	1333
383013276591	1557
383013276592	1796
383013276593	1617
383013276594	1527
383013276595	1338
383013276596	1416
383013276597	1206
383013276598	1503
383013276599	1615
383013276600	1715
383013276601	1228
383013276602	1171
383013276603	1228
383013276604	927
383013276605	882
383013276606	1249
383013276607	1198
383013276608	1548
383013276609	1034
383013276610	0
383013276611	0
383013276612	174
383013276613	1119
383013276614	1901
383013276615	2445
383013276616	2727
383013276617	2734
383013276618	2661
383013276619	2941
383013276620	2077
383013276621	1539
383013276622	1522
383013276623	1414
383013276624	1258
383013276625	1120
383013276626	1093
383013276627	1177
383013276628	1272
383013276629	1252
383013276630	1355
383013276631	1438
383013276632	1458
383013276633	1317
383013276634	1245
383013276635	1214
383013276636	1370
383013276637	1413
383013276638	1474
383013276639	1528
383013276640	1475
383013276641	1427
383013276642	1276
383013276643	1042
383013276644	1212
383013276645	1127
383013276646	1157
383013276647	1476
383013276648	1446
383013276649	1607
383013276650	1480
383013276651	1421
383013276652	1446
383013276653	1522
383013276654	1559
383013276655	1258
383013276656	427
383013276657	761
383013276658	933
383013276659	1308
383013276660	1432
383013276661	1547
383013276662	1662
383013276663	1743
383013276664	1864
383013276665	2033
383013276666	1661
383013276667	1380
383013276668	1327
383013276669	1355
383013276670	1243
383013276671	1381
383013276672	1315
383013276673	1247
383013276674	1237
383013276675	1241
383013276676	1252
383013276677	1338
383013276678	1415
383013276679	1581
383013276680	1709
383013276681	1619
383013276682	1634
383013276683	1667
383013276684	1764
383013276685	1875
383013276686	2006
383013276687	2070
383013276688	2089
383013276689	2015
383013276690	1875
383013276691	1580
383013276692	1232
383013276693	1099
383013276694	833
383013276695	586
383013276696	566
383013276697	562
383013276698	529
383013276699	553
383013276700	635
383013276701	788
383013276702	967
383013276703	1101
383013276704	1195
383013276705	1264
383013276706	1355
383013276707	1430
383013276708	1464
383013276709	1432
383013276710	1403
383013276711	1357
383013276712	1288
383013276713	1290
383013276714	1331
383013276715	1366
383013276716	1462
383013276717	1524
383013276718	1625
383013276719	1603
383013276720	1660
383013276721	1548
383013276722	1286
383013276723	1170
383013276724	1230
383013276725	1296
383013276726	1201
383013276727	981
383013276728	1050
383013276729	989
383013276730	998
383013276731	984
383013276732	1068
383013276733	1162
383013276734	1183
383013276735	1402
383013276736	1667
383013276737	1501
383013276738	1439
383013276739	1466
383013276740	1401
383013276741	1327
383013276742	1350
383013276743	1308
383013276744	1408
383013276745	1384
383013276746	1134
383013276747	1151
383013276748	1518
383013276749	1593
383013276750	1956
383013276751	1581
383013276752	227
383013276753	249
383013276754	634
383013276755	1139
383013276756	1293
383013276757	1399
383013276758	1388
383013276759	1473
383013276760	1662
383013276761	1736
383013276762	1667
383013276763	1784
383013276764	1828
383013276765	1834
383013276766	1744
383013276767	1757
383013276768	1460
383013276769	1463
383013276770	1637
383013276771	1759
383013276772	1771
383013276773	1647
383013276774	1489
383013276775	1576
383013276776	1257
383013276777	1563
383013276778	1505
383013276779	1705
383013276780	1354
383013276781	1077
383013276782	803
383013276783	670
383013276784	693
383013276785	1174
383013276786	1556
383013276787	1623
383013276788	1542
383013276789	1385
383013276790	1320
383013276791	1360
383013276792	1384
383013276793	1350
383013276794	1250
383013276795	1409
383013276796	1470
383013276797	1519
383013276798	1435
383013276799	1518
383013276800	1672
383013276801	1763
383013276802	1748
383013276803	1825
383013276804	2269
383013276805	1930
383013276806	1586
383013276807	1265
383013276808	1095
383013276809	879
383013276810	322
383013276811	484
383013276812	773
383013276813	1185
383013276814	1040
383013276815	901
383013276816	1495
383013276817	2274
383013276818	1790
383013276819	1679
383013276820	1830
383013276821	1608
383013276822	1573
383013276823	1488
383013276824	1145
383013276825	1403
383013276826	1605
383013276827	1206
383013276828	1096
383013276829	1355
383013276830	1399
383013276831	821
383013276832	140
383013276833	302
383013276834	136
383013276835	380
383013276836	814
383013276837	1245
383013276838	1513
383013276839	1513
383013276840	1575
383013276841	1654
383013276842	1514
383013276843	1431
383013276844	1322
383013276845	1313
383013276846	1486
383013276847	1701
383013276848	1676
383013276849	1598
383013276850	1089
383013276851	1810
383013276852	1623
383013276853	1519
383013276854	1709
383013276855	1615
383013276856	1871
383013276857	1757
383013276858	1208
383013276859	1242
383013276860	1974
383013276861	2128
383013276862	1378
383013276863	1211
383013276864	1626
383013276865	1349
383013276866	1189
383013276867	1432
383013276868	1600
383013276869	1479
383013276870	1858
383013276871	1763
383013276872	1314
383013276873	617
383013276874	1042
383013276875	2293
383013276876	1628
383013276877	1428
383013276878	1822
383013276879	1887
383013276880	2395
383013276881	2027
383013276882	1874
383013276883	1368
383013276884	1098
383013276885	1214
383013276886	1281
383013276887	1284
383013276888	1272
383013276889	1369
383013276890	1320
383013276891	1012
383013276892	530
383013276893	574
383013276894	702
383013276895	620
383013276896	1036
383013276897	1440
383013276898	1355
383013276899	1724
383013276900	1182
383013276901	1212
383013276902	1087
383013276903	1152
383013276904	1597
383013276905	1017
383013276906	1231
383013276907	982
383013276908	1321
383013276909	1186
383013276910	1153
383013276911	1130
383013276912	1381
383013276913	1291
383013276914	1129
383013276915	1394
383013276916	1508
383013276917	1469
383013276918	992
383013276919	1179
383013276920	1288
383013276921	2037
383013276922	2609
383013276923	2464
383013276924	2437
383013276925	1684
383013276926	939
383013276927	518
383013276928	711
383013276929	377
383013276930	503
383013276931	839
383013276932	1109
383013276933	1294
383013276934	1438
383013276935	1421
383013276936	1578
383013276937	1634
383013276938	1614
383013276939	1658
383013276940	1263
383013276941	1518
383013276942	1878
383013276943	1833
383013276944	1625
383013276945	1901
383013276946	1345
383013276947	1701
383013276948	1720
383013276949	1623
383013276950	1224
383013276951	1328
383013276952	828
383013276953	452
383013276954	1061
383013276955	1582
383013276956	1983
383013276957	2153
383013276958	2113
383013276959	2354
383013276960	2378
383013276961	2222
383013276962	2144
383013276963	2351
383013276964	1875
383013276965	1520
383013276966	1395
383013276967	1182
383013276968	989
383013276969	1087
383013276970	1034
383013276971	821
383013276972	830
383013276973	608
383013276974	747
383013276975	164
383013276976	611
383013276977	704
383013276978	344
383013276979	513
383013276980	712
383013276981	176
383013276982	680
383013276983	649
383013276984	1009
383013276985	707
383013276986	862
383013276987	1061
383013276988	1110
383013276989	1049
383013276990	1204
383013276991	2101
383013276992	2047
383013276993	2018
383013276994	2103
383013276995	1928
383013276996	1801
383013276997	1735
383013276998	1451
383013276999	1153
383013277000	980
383013277001	734
383013277002	403
383013277003	401
383013277004	519
383013277005	673
383013277006	785
383013277007	641
383013277008	965
383013277009	951
383013277010	1488
383013277011	1338
383013277012	1118
383013277013	1269
383013277014	1113
383013277015	1206
383013277016	1093
383013277017	1124
383013277018	1110
383013277019	1299
383013277020	2705
383013277021	1979
383013277022	1657
383013277023	1437
383013277024	1280
383013277025	1240
383013277026	1265
383013277027	1399
383013277028	1457
383013277029	1158
383013277030	1255
383013277031	1682
383013277032	1122
383013277033	659
383013277034	1233
383013277035	1604
383013277036	2042
383013277037	1203
383013277038	1212
383013277039	817
383013277040	1449
383013277041	1945
383013277042	2082
383013277043	2141
383013277044	2057
383013277045	1779
383013277046	2179
383013277047	2063
383013277048	2170
383013277049	2063
383013277050	1716
383013277051	1375
383013277052	1135
383013277053	1220
383013277054	1234
383013277055	1339
383013277056	1404
383013277057	1439
383013277058	1435
383013277059	1255
383013277060	1604
383013277061	1455
383013277062	1227
383013277063	1106
383013277064	1073
383013277065	1213
383013277066	1283
383013277067	1201
383013277068	1203
383013277069	1161
383013277070	1201
383013277071	1361
383013277072	1463
383013277073	1994
383013277074	2780
383013277075	1994
383013277076	1871
383013277077	1441
383013277078	1341
383013277079	1563
383013277080	1232
383013277081	1383
383013277082	1625
383013277083	1728
383013277084	1883
383013277085	2154
383013277086	1887
383013277087	1973
383013277088	2612
383013277089	2476
383013277090	2307
383013277091	2389
383013277092	2024
383013277093	1415
383013277094	612
383013277095	296
383013277096	686
383013277097	964
383013277098	794
383013277099	1444
383013277100	1080
383013277101	814
383013277102	731
383013277103	680
383013277104	831
383013277105	903
383013277106	340
383013277107	0
383013277108	834
383013277109	1256
383013277110	1369
383013277111	1314
383013277112	1412
383013277113	1421
383013277114	1609
383013277115	1566
383013277116	1548
383013277117	1594
383013277118	1596
383013277119	1588
383013277120	1341
383013277121	1290
383013277122	1267
383013277123	1407
383013277124	1569
383013277125	1343
383013277126	1160
383013277127	1368
383013277128	1297
383013277129	1346
383013277130	1360
383013277131	1151
383013277132	1258
383013277133	1439
383013277134	1418
383013277135	1444
383013277136	1242
383013277137	1319
383013277138	1312
383013277139	1393
383013277140	1379
383013277141	1345
383013277142	1306
383013277143	1413
383013277144	1473
383013277145	1511
383013277146	1563
383013277147	1529
383013277148	1590
383013277149	1709
383013277150	1611
383013277151	1410
383013277152	1378
383013277153	1552
383013277154	1422
383013277155	1093
383013277156	1366
383013277157	1079
383013277158	659
383013277159	576
383013277160	359
383013277161	556
383013277162	1121
383013277163	1622
383013277164	1606
383013277165	1865
383013277166	2142
383013277167	2136
383013277168	2022
383013277169	1779
383013277170	1911
383013277171	2023
383013277172	2281
383013277173	2105
383013277174	1993
383013277175	1632
383013277176	1722
383013277177	2344
383013277178	2059
383013277179	2677
383013277180	3382
383013277181	2165
383013277182	1534
383013277183	1386
383013277184	1156
383013277185	1111
383013277186	1104
383013277187	968
383013277188	769
383013277189	744
383013277190	669
383013277191	710
383013277192	681
383013277193	658
383013277194	333
383013277195	637
383013277196	1353
383013277197	2
383013277198	0
383013277199	0
383013277200	0
383013277201	398
383013277202	980
383013277203	1083
383013277204	1195
383013277205	1305
383013277206	1205
383013277207	1128
383013277208	1109
383013277209	1258
383013277210	1143
383013277211	856
383013277212	1093
383013277213	1149
383013277214	1373
383013277215	1566
383013277216	1621
383013277217	1750
383013277218	1951
383013277219	1914
383013277220	1904
383013277221	1933
383013277222	1789
383013277223	1627
383013277224	1632
383013277225	1746
383013277226	1874
383013277227	1731
383013277228	1669
383013277229	1612
383013277230	1440
383013277231	1590
383013277232	1545
383013277233	1730
383013277234	1823
383013277235	1652
383013277236	1556
383013277237	1611
383013277238	1177
383013277239	1278
383013277240	1200
383013277241	1419
383013277242	1285
383013277243	1114
383013277244	863
383013277245	927
383013277246	1081
383013277247	1220
383013277248	1246
383013277249	1225
383013277250	1155
383013277251	1312
383013277252	1626
383013277253	1885
383013277254	1982
383013277255	2016
383013277256	2148
383013277257	2087
383013277258	1885
383013277259	1652
383013277260	1518
383013277261	1379
383013277262	1275
383013277263	1261
383013277264	1346
383013277265	1385
383013277266	1406
383013277267	1465
383013277268	1510
383013277269	1537
383013277270	1475
383013277271	1483
383013277272	1351
383013277273	1267
383013277274	1304
383013277275	1256
383013277276	1268
383013277277	1268
383013277278	1314
383013277279	1328
383013277280	1424
383013277281	1559
383013277282	1764
383013277283	1648
383013277284	1400
383013277285	1459
383013277286	1585
383013277287	1714
383013277288	1762
383013277289	1667
383013277290	1472
383013277291	1542
383013277292	1439
383013277293	1553
383013277294	1756
383013277295	1518
383013277296	1645
383013277297	1483
383013277298	1463
383013277299	1373
383013277300	1366
383013277301	1343
383013277302	1297
383013277303	1239
383013277304	1163
383013277305	1234
383013277306	1244
383013277307	1080
383013277308	1240
383013277309	1471
383013277310	1402
383013277311	1414
383013277312	1352
383013277313	1393
383013277314	1349
383013277315	1220
383013277316	1176
383013277317	1183
383013277318	1282
383013277319	1263
383013277320	1343
383013277321	1356
383013277322	1414
383013277323	1421
383013277324	1471
383013277325	1479
383013277326	1493
383013277327	1362
383013277328	1489
383013277329	1361
383013277330	1283
383013277331	1231
383013277332	1262
383013277333	1352
383013277334	1295
383013277335	1258
383013277336	1216
383013277337	1258
383013277338	1284
383013277339	1284
383013277340	1286
383013277341	1217
383013277342	1228
383013277343	1299
383013277344	1365
383013277345	1408
383013277346	1451
383013277347	1390
383013277348	1356
383013277349	1346
383013277350	1322
383013277351	1253
383013277352	1276
383013277353	1165
383013277354	1380
383013277355	1329
383013277356	1478
383013277357	1463
383013277358	1527
383013277359	1527
383013277360	1526
383013277361	1552
383013277362	1388
383013277363	1231
383013277364	1230
383013277365	1395
383013277366	1476
383013277367	1399
383013277368	1313
383013277369	1276
383013277370	1289
383013277371	1371
383013277372	1514
383013277373	1459
383013277374	1499
383013277375	1339
383013277376	1352
383013277377	1302
383013277378	1475
383013277379	1523
383013277380	1693
383013277381	1486
383013277382	1555
383013277383	1482
383013277384	1510
383013277385	1526
383013277386	1686
383013277387	1778
383013277388	1707
383013277389	1687
383013277390	1620
383013277391	1210
383013277392	1141
383013277393	1062
383013277394	979
383013277395	1134
383013277396	1322
383013277397	518
383013277398	581
383013277399	742
383013277400	1053
383013277401	1402
383013277402	1353
383013277403	1398
383013277404	1380
383013277405	1324
383013277406	1195
383013277407	1217
383013277408	1166
383013277409	1216
383013277410	1106
383013277411	1121
383013277412	1161
383013277413	1171
383013277414	1436
383013277415	1479
383013277416	1599
383013277417	1554
383013277418	1372
383013277419	1355
383013277420	1275
383013277421	1203
383013277422	1011
383013277423	797
383013277424	770
383013277425	849
383013277426	969
383013277427	981
383013277428	788
383013277429	975
383013277430	979
383013277431	1122
383013277432	1111
383013277433	1291
383013277434	1630
383013277435	1636
383013277436	1597
383013277437	1553
383013277438	1703
383013277439	1496
383013277440	1439
383013277441	1819
383013277442	1824
383013277443	1548
383013277444	1311
383013277445	1078
383013277446	1034
383013277447	1136
383013277448	998
383013277449	892
383013277450	1016
383013277451	1147
383013277452	1344
383013277453	1650
383013277454	1810
383013277455	1840
383013277456	2220
383013277457	2331
383013277458	2153
383013277459	2133
383013277460	1728
383013277461	1694
383013277462	1436
383013277463	1477
383013277464	1577
383013277465	1489
383013277466	1571
383013277467	1627
383013277468	1583
383013277469	1613
383013277470	1624
383013277471	1549
383013277472	1700
383013277473	1586
383013277474	1732
383013277475	1809
383013277476	1680
383013277477	1735
383013277478	1583
383013277479	1494
383013277480	1724
383013277481	1623
383013277482	1615
383013277483	1519
383013277484	1358
383013277485	1409
383013277486	1462
383013277487	1497
383013277488	1367
383013277489	1249
383013277490	1499
383013277491	1474
383013277492	1383
383013277493	1402
383013277494	1330
383013277495	1143
383013277496	1391
383013277497	1289
383013277498	1681
383013277499	1385
383013277500	1422
383013277501	1303
383013277502	1244
383013277503	1236
383013277504	1116
383013277505	1229
383013277506	1050
383013277507	1384
383013277508	1304
383013277509	1578
383013277510	1354
383013277511	1142
383013277512	1249
383013277513	1128
383013277514	1019
383013277515	904
383013277516	800
383013277517	854
383013277518	1045
383013277519	1293
383013277520	1322
383013277521	1292
383013277522	1225
383013277523	1239
383013277524	1163
383013277525	1109
383013277526	1044
383013277527	971
383013277528	971
383013277529	1058
383013277530	1056
383013277531	1137
383013277532	1272
383013277533	1354
383013277534	1347
383013277535	1248
383013277536	1179
383013277537	1169
383013277538	1182
383013277539	1262
383013277540	1284
383013277541	1318
383013277542	1231
383013277543	1186
383013277544	1140
383013277545	1120
383013277546	1078
383013277547	1252
383013277548	1274
383013277549	1451
383013277550	1502
383013277551	1369
383013277552	1358
383013277553	1426
383013277554	1474
383013277555	1461
383013277556	1464
383013277557	1540
383013277558	1726
383013277559	1778
383013277560	1675
383013277561	1590
383013277562	1581
383013277563	1766
383013277564	1736
383013277565	1726
383013277566	1750
383013277567	1633
383013277568	1673
383013277569	1555
383013277570	1630
383013277571	1576
383013277572	1384
383013277573	1452
383013277574	1430
383013277575	1442
383013277576	1322
383013277577	1281
383013277578	1371
383013277579	1281
383013277580	1527
383013277581	1162
383013277582	1092
383013277583	1739
383013277584	1493
383013277585	1371
383013277586	1267
383013277587	1286
383013277588	921
383013277589	1101
383013277590	1118
383013277591	960
383013277592	745
383013277593	840
383013277594	843
383013277595	1334
383013277596	1349
383013277597	533
383013277598	563
383013277599	486
383013277600	0
383013277601	0
383013277602	1
383013277603	0
383013277604	526
383013277605	1427
383013277606	1451
383013277607	1323
383013277608	1138
383013277609	1089
383013277610	1493
383013277611	1043
383013277612	1804
383013277613	5
383013277614	0
383013277615	498
383013277616	1800
383013277617	3062
383013277618	2503
383013277619	2487
383013277620	2701
383013277621	2902
383013277622	3063
383013277623	3394
383013277624	3592
383013277625	3446
383013277626	3455
383013277627	3623
383013277628	3201
383013277629	2694
383013277630	2281
383013277631	2890
383013277632	1680
383013277633	1877
383013277634	3026
383013277635	2340
383013277636	2311
383013277637	2364
383013277638	1761
383013277639	1362
383013277640	1613
383013277641	1597
383013277642	1302
383013277643	23
383013277644	0
383013277645	392
383013277646	997
383013277647	1171
383013277648	1391
383013277649	1523
383013277650	1448
383013277651	1396
383013277652	1342
383013277653	1319
383013277654	1326
383013277655	1545
383013277656	1371
383013277657	1350
383013277658	1732
383013277659	1704
383013277660	1862
383013277661	1770
383013277662	2052
383013277663	2264
383013277664	2686
383013277665	3146
383013277666	4088
383013277667	3869
383013277668	3427
383013277669	2712
383013277670	2229
383013277671	1827
383013277672	2115
383013277673	1234
383013277674	714
383013277675	2012
383013277676	1042
383013277677	645
383013277678	1062
383013277679	835
383013277680	777
383013277681	1064
383013277682	955
383013277683	1035
383013277684	1375
383013277685	1337
383013277686	1044
383013277687	819
383013277688	848
383013277689	1068
383013277690	1375
383013277691	1172
383013277692	1334
383013277693	1327
383013277694	1190
383013277695	921
383013277696	1156
383013277697	1147
383013277698	1297
383013277699	1328
383013277700	999
383013277701	1243
383013277702	521
383013277703	414
383013277704	989
383013277705	1608
383013277706	1464
383013277707	1164
383013277708	924
383013277709	701
383013277710	121
383013277711	200
383013277712	534
383013277713	1333
383013277714	1267
383013277715	0
383013277716	618
383013277717	1367
383013277718	1386
383013277719	1129
383013277720	1710
383013277721	2104
383013277722	3358
383013277723	4016
383013277724	4067
383013277725	4089
383013277726	3144
383013277727	2503
383013277728	2385
383013277729	2973
383013277730	2205
383013277731	1218
383013277732	699
383013277733	223
383013277734	0
383013277735	128
383013277736	258
383013277737	403
383013277738	619
383013277739	734
383013277740	833
383013277741	981
383013277742	1126
383013277743	1096
383013277744	866
383013277745	807
383013277746	885
383013277747	687
383013277748	599
383013277749	667
383013277750	323
383013277751	542
383013277752	946
383013277753	1041
383013277754	1062
383013277755	1480
383013277756	1625
383013277757	1602
383013277758	1465
383013277759	1676
383013277760	1751
383013277761	2304
383013277762	1874
383013277763	2320
383013277764	2215
383013277765	2156
383013277766	1686
383013277767	1766
383013277768	1802
383013277769	2081
383013277770	2079
383013277771	2456
383013277772	2815
383013277773	3143
383013277774	2684
383013277775	2526
383013277776	1987
383013277777	1375
383013277778	1573
383013277779	1646
383013277780	1622
383013277781	1902
383013277782	1618
383013277783	1326
383013277784	1563
383013277785	1401
383013277786	1729
383013277787	1862
383013277788	1748
383013277789	1930
383013277790	1590
383013277791	1756
383013277792	1762
383013277793	1275
383013277794	1016
383013277795	977
383013277796	1322
383013277797	1593
383013277798	2005
383013277799	1967
383013277800	1969
383013277801	1222
383013277802	836
383013277803	964
383013277804	1444
383013277805	1589
383013277806	1745
383013277807	1632
383013277808	1403
383013277809	1310
383013277810	1109
383013277811	604
383013277812	861
383013277813	1164
383013277814	478
383013277815	1
383013277816	2
383013277817	0
383013277818	14
383013277819	36
383013277820	0
383013277821	13
383013277822	1406
383013277823	1253
383013277824	2301
383013277825	394
383013277826	1398
383013277827	2708
383013277828	2455
383013277829	2420
383013277830	3185
383013277831	1599
383013277832	1584
383013277833	2560
383013277834	1537
383013277835	1256
383013277836	2193
383013277837	1860
383013277838	3008
383013277839	2110
383013277840	2330
383013277841	2809
383013277842	2206
383013277843	3397
383013277844	2269
383013277845	2356
383013277846	2265
383013277847	1369
383013277848	2602
383013277849	1934
383013277850	961
383013277851	751
383013277852	761
383013277853	507
383013277854	496
383013277855	572
383013277856	78
383013277857	2
383013277858	102
383013277859	3
383013277860	851
383013277861	477
383013277862	682
383013277863	990
383013277864	1067
383013277865	953
383013277866	953
383013277867	1097
383013277868	996
383013277869	1105
383013277870	1018
383013277871	687
383013277872	1082
383013277873	798
383013277874	1103
383013277875	817
383013277876	1332
383013277877	1490
383013277878	1409
383013277879	1135
383013277880	1458
383013277881	1324
383013277882	1340
383013277883	1177
383013277884	1286
383013277885	1400
383013277886	1355
383013277887	1500
383013277888	1270
383013277889	1519
383013277890	1582
383013277891	1788
383013277892	1723
383013277893	1398
383013277894	1169
383013277895	951
383013277896	1038
383013277897	1091
383013277898	1257
383013277899	1205
383013277900	1532
383013277901	1675
383013277902	1426
383013277903	1934
383013277904	1729
383013277905	818
383013277906	300
383013277907	537
383013277908	3
383013277909	1919
383013277910	944
383013277911	1651
383013277912	1368
383013277913	1005
383013277914	3365
383013277915	2527
383013277916	1498
383013277917	1100
383013277918	1084
383013277919	926
383013277920	669
383013277921	854
383013277922	1089
383013277923	1640
383013277924	1856
383013277925	1895
383013277926	1884
383013277927	1738
383013277928	1786
383013277929	1703
383013277930	1647
383013277931	1339
383013277932	1494
383013277933	1472
383013277934	1528
383013277935	1586
383013277936	1531
383013277937	1774
383013277938	1995
383013277939	1823
383013277940	1844
383013277941	1895
383013277942	1835
383013277943	1632
383013277944	1525
383013277945	1561
383013277946	1590
383013277947	1438
383013277948	1564
383013277949	1557
383013277950	1687
383013277951	1711
383013277952	1580
383013277953	1485
383013277954	1394
383013277955	1347
383013277956	1411
383013277957	1648
383013277958	1139
383013277959	753
383013277960	466
383013277961	667
383013277962	925
383013277963	901
383013277964	943
383013277965	965
383013277966	1015
383013277967	1258
383013277968	1430
383013277969	1619
383013277970	1680
383013277971	1635
383013277972	1725
383013277973	1743
383013277974	1658
383013277975	1604
383013277976	1675
383013277977	1708
383013277978	1776
383013277979	1641
383013277980	1497
383013277981	1330
383013277982	1089
383013277983	1278
383013277984	1430
383013277985	1397
383013277986	1395
383013277987	1437
383013277988	1510
383013277989	1438
383013277990	1540
383013277991	1580
383013277992	1579
383013277993	1609
383013277994	1491
383013277995	1506
383013277996	1325
383013277997	1402
383013277998	1347
383013277999	1339
383013278000	1369
383013278001	1299
383013278002	1345
383013278003	1085
383013278004	431
383013278005	1032
383013278006	1249
383013278007	1584
383013278008	1723
383013278009	1785
383013278010	1589
383013278011	196
383013278012	565
383013278013	648
383013278014	598
383013278015	928
383013278016	1174
383013278017	1519
383013278018	1884
383013278019	1755
383013278020	1823
383013278021	1773
383013278022	1792
383013278023	1736
383013278024	1693
383013278025	1275
383013278026	1398
383013278027	1497
383013278028	1198
383013278029	1294
383013278030	1389
383013278031	1412
383013278032	1383
383013278033	1447
383013278034	1507
383013278035	1485
383013278036	1239
383013278037	1459
383013278038	1392
383013278039	1351
383013278040	1467
383013278041	1323
383013278042	1450
383013278043	1365
383013278044	1554
383013278045	1863
383013278046	1971
383013278047	2049
383013278048	2171
383013278049	2183
383013278050	2210
383013278051	2092
383013278052	1960
383013278053	1771
383013278054	1608
383013278055	1428
383013278056	1382
383013278057	1321
383013278058	1277
383013278059	1265
383013278060	1316
383013278061	1226
383013278062	1340
383013278063	1278
383013278064	1269
383013278065	1278
383013278066	1276
383013278067	1277
383013278068	1299
383013278069	1466
383013278070	1505
383013278071	1584
383013278072	1600
383013278073	1579
383013278074	1557
383013278075	1633
383013278076	1536
383013278077	1321
383013278078	1232
383013278079	1135
383013278080	1182
383013278081	1133
383013278082	1171
383013278083	1096
383013278084	1079
383013278085	1130
383013278086	1129
383013278087	1006
383013278088	970
383013278089	909
383013278090	991
383013278091	992
383013278092	1100
383013278093	1265
383013278094	1235
383013278095	1146
383013278096	1019
383013278097	1094
383013278098	1097
383013278099	1200
383013278100	1337
383013278101	1291
383013278102	1333
383013278103	1195
383013278104	1264
383013278105	1293
383013278106	1331
383013278107	1379
383013278108	1275
383013278109	1346
383013278110	1366
383013278111	1419
383013278112	1423
383013278113	1496
383013278114	1572
383013278115	1553
383013278116	1424
383013278117	1565
383013278118	1428
383013278119	1399
383013278120	1313
383013278121	1289
383013278122	1248
383013278123	1308
383013278124	1426
383013278125	1528
383013278126	1603
383013278127	1652
383013278128	1433
383013278129	1306
383013278130	1280
383013278131	1341
383013278132	1441
383013278133	1419
383013278134	1147
383013278135	1239
383013278136	1446
383013278137	1441
383013278138	1223
383013278139	1226
383013278140	1246
383013278141	1345
383013278142	1343
383013278143	1461
383013278144	1434
383013278145	1272
383013278146	1379
383013278147	1360
383013278148	1268
383013278149	1295
383013278150	1227
383013278151	1433
383013278152	1228
383013278153	1246
383013278154	1107
383013278155	1121
383013278156	1214
383013278157	1094
383013278158	1141
383013278159	1102
383013278160	1158
383013278161	1274
383013278162	1187
383013278163	1160
383013278164	1099
383013278165	1097
383013278166	1109
383013278167	1285
383013278168	1326
383013278169	1360
383013278170	1283
383013278171	1217
383013278172	1367
383013278173	1427
383013278174	1446
383013278175	1420
383013278176	1337
383013278177	1366
383013278178	1343
383013278179	1310
383013278180	1315
383013278181	1339
383013278182	1422
383013278183	1444
383013278184	1365
383013278185	1336
383013278186	1295
383013278187	1369
383013278188	1435
383013278189	1424
383013278190	1404
383013278191	1452
383013278192	1518
383013278193	1495
383013278194	1450
383013278195	1412
383013278196	1348
383013278197	1432
383013278198	1507
383013278199	1214
383013278200	1114
383013278201	1288
383013278202	1277
383013278203	1313
383013278204	1341
383013278205	1369
383013278206	1510
383013278207	1480
383013278208	1440
383013278209	1547
383013278210	1521
383013278211	1518
383013278212	1520
383013278213	1579
383013278214	1640
383013278215	1439
383013278216	1451
383013278217	1369
383013278218	1357
383013278219	1377
383013278220	1447
383013278221	1381
383013278222	1370
383013278223	1404
383013278224	1407
383013278225	1381
383013278226	1316
383013278227	1299
383013278228	1333
383013278229	1364
383013278230	1231
383013278231	1151
383013278232	1302
383013278233	1323
383013278234	1466
383013278235	1571
383013278236	1561
383013278237	1517
383013278238	1620
383013278239	1602
383013278240	1573
383013278241	1498
383013278242	1559
383013278243	1655
383013278244	1540
383013278245	1531
383013278246	1540
383013278247	1593
383013278248	1702
383013278249	1428
383013278250	1618
383013278251	1642
383013278252	1420
383013278253	1508
383013278254	1568
383013278255	1490
383013278256	1375
383013278257	1296
383013278258	1076
383013278259	1037
383013278260	1192
383013278261	1094
383013278262	1225
383013278263	1230
383013278264	1120
383013278265	930
383013278266	878
383013278267	760
383013278268	1116
383013278269	1103
383013278270	1019
383013278271	959
383013278272	785
383013278273	1222
383013278274	1393
383013278275	1410
383013278276	1440
383013278277	1296
383013278278	1322
383013278279	1218
383013278280	1282
383013278281	1557
383013278282	1424
383013278283	1591
383013278284	1543
383013278285	1458
383013278286	1483
383013278287	1543
383013278288	1434
383013278289	1544
383013278290	1479
383013278291	1407
383013278292	1513
383013278293	1285
383013278294	1258
383013278295	1282
383013278296	852
383013278297	803
383013278298	806
383013278299	823
383013278300	1148
383013278301	821
383013278302	1044
383013278303	1082
383013278304	1002
383013278305	1414
383013278306	1026
383013278307	1083
383013278308	1413
383013278309	1331
383013278310	1539
383013278311	1624
383013278312	1729
383013278313	1636
383013278314	1372
383013278315	1363
383013278316	1961
383013278317	2090
383013278318	1927
383013278319	1517
383013278320	1452
383013278321	1441
383013278322	1574
383013278323	1398
383013278324	1446
383013278325	1542
383013278326	1481
383013278327	1505
383013278328	1447
383013278329	1324
383013278330	1448
383013278331	1298
383013278332	1378
383013278333	1466
383013278334	1329
383013278335	1146
383013278336	1404
383013278337	1143
383013278338	1119
383013278339	872
383013278340	1370
383013278341	1414
383013278342	1485
383013278343	1538
383013278344	1261
383013278345	1604
383013278346	1249
383013278347	1349
383013278348	1396
383013278349	1230
383013278350	1075
383013278351	1757
383013278352	1429
383013278353	2083
383013278354	1711
383013278355	1857
383013278356	1838
383013278357	1866
383013278358	1044
383013278359	1392
383013278360	863
383013278361	623
383013278362	1786
383013278363	1907
383013278364	1553
383013278365	1012
383013278366	1284
383013278367	1284
383013278368	1668
383013278369	1708
383013278370	1666
383013278371	1539
383013278372	1267
383013278373	1190
383013278374	1196
383013278375	1195
383013278376	1408
383013278377	1386
383013278378	1087
383013278379	1333
383013278380	1351
383013278381	1343
383013278382	1410
383013278383	1161
383013278384	1012
383013278385	880
383013278386	1137
383013278387	1233
383013278388	1285
383013278389	1183
383013278390	1688
383013278391	1182
383013278392	1148
383013278393	1375
383013278394	1492
383013278395	1410
383013278396	1955
383013278397	1873
383013278398	1413
383013278399	926
383013278400	1096
383013278401	884
383013278402	997
383013278403	1395
383013278404	1761
383013278405	1412
383013278406	1359
383013278407	2016
383013278408	1873
383013278409	1987
383013278410	745
383013278411	836
383013278412	2567
383013278413	957
383013278414	707
383013278415	1533
383013278416	341
383013278417	641
383013278418	789
383013278419	3
383013278420	2712
383013278421	1124
383013278422	1075
383013278423	676
383013278424	1212
383013278425	1617
383013278426	1392
383013278427	1494
383013278428	1483
383013278429	1309
383013278430	1328
383013278431	1332
383013278432	1532
383013278433	1696
383013278434	1684
383013278435	1514
383013278436	1685
383013278437	1574
383013278438	1613
383013278439	1711
383013278440	1408
383013278441	1300
383013278442	1392
383013278443	1380
383013278444	1497
383013278445	1456
383013278446	918
383013278447	707
383013278448	1524
383013278449	926
383013278450	1534
383013278451	85
383013278452	535
383013278453	0
383013278454	2
383013278455	0
383013278456	0
383013278457	1931
383013278458	531
383013278459	540
383013278460	1398
383013278461	816
383013278462	1040
383013278463	88
383013278464	1
383013278465	2
383013278466	1
383013278467	966
383013278468	2372
383013278469	3341
383013278470	3037
383013278471	2934
383013278472	2925
383013278473	1872
383013278474	394
383013278475	0
383013278476	0
383013278477	537
383013278478	2237
383013278479	2431
383013278480	3823
383013278481	4088
383013278482	4089
383013278483	4088
383013278484	5
383013278485	391
383013278486	4086
383013278487	4089
383013278488	4090
383013278489	2004
383013278490	3061
383013278491	4089
383013278492	1564
383013278493	2740
383013278494	1717
383013278495	1239
383013278496	1855
383013278497	2472
383013278498	2308
383013278499	2011
383013278500	0
383013278501	0
383013278502	953
383013278503	2442
383013278504	1528
383013278505	1947
383013278506	1973
383013278507	580
383013278508	887
383013278509	86
383013278510	0
383013278511	68
383013278512	506
383013278513	1281
383013278514	1195
383013278515	836
383013278516	1108
383013278517	1877
383013278518	2506
383013278519	1137
383013278520	1683
383013278521	1688
383013278522	259
383013278523	669
383013278524	906
383013278525	1533
383013278526	1495
383013278527	371
383013278528	1435
383013278529	1530
383013278530	1554
383013278531	1369
383013278532	1823
383013278533	1537
383013278534	1371
383013278535	2669
383013278536	2148
383013278537	2110
383013278538	1985
383013278539	1329
383013278540	1927
383013278541	1821
383013278542	1839
383013278543	1924
383013278544	776
383013278545	1284
383013278546	1470
383013278547	2333
383013278548	1533
383013278549	1458
383013278550	1685
383013278551	1838
383013278552	938
383013278553	1533
383013278554	1138
383013278555	1808
383013278556	943
383013278557	1251
383013278558	969
383013278559	988
383013278560	995
383013278561	649
383013278562	411
383013278563	971
383013278564	2214
383013278565	240
383013278566	2249
383013278567	2153
383013278568	1210
383013278569	2651
383013278570	1041
383013278571	1880
383013278572	1882
383013278573	1690
383013278574	1440
383013278575	1742
383013278576	1963
383013278577	1592
383013278578	1829
383013278579	1963
383013278580	1465
383013278581	1256
383013278582	1639
383013278583	1424
383013278584	1358
383013278585	1516
383013278586	1710
383013278587	2094
383013278588	1892
383013278589	2091
383013278590	2047
383013278591	1741
383013278592	1632
383013278593	1588
383013278594	1445
383013278595	1303
383013278596	1342
383013278597	1295
383013278598	1377
383013278599	1025
383013278600	1015
383013278601	999
383013278602	1101
383013278603	1144
383013278604	1010
383013278605	785
383013278606	858
383013278607	1230
383013278608	1227
383013278609	1114
383013278610	1508
383013278611	1707
383013278612	1446
383013278613	1432
383013278614	1504
383013278615	1298
383013278616	1350
383013278617	1078
383013278618	704
383013278619	1258
383013278620	549
383013278621	671
383013278622	1206
383013278623	897
383013278624	1276
383013278625	1043
383013278626	840
383013278627	1001
383013278628	813
383013278629	1084
383013278630	1228
383013278631	982
383013278632	1030
383013278633	911
383013278634	796
383013278635	543
383013278636	561
383013278637	937
383013278638	1419
383013278639	1527
383013278640	1593
383013278641	1531
383013278642	1493
383013278643	1090
383013278644	1280
383013278645	1207
383013278646	1113
383013278647	922
383013278648	1055
383013278649	925
383013278650	1044
383013278651	1570
383013278652	1322
383013278653	887
383013278654	1013
383013278655	1281
383013278656	1178
383013278657	1067
383013278658	2056
383013278659	3071
383013278660	3950
383013278661	3929
383013278662	3874
383013278663	2354
383013278664	1425
383013278665	1117
383013278666	1064
383013278667	1180
383013278668	1089
383013278669	1148
383013278670	924
383013278671	884
383013278672	969
383013278673	850
383013278674	827
383013278675	627
383013278676	489
383013278677	1010
383013278678	1543
383013278679	1868
383013278680	1889
383013278681	1780
383013278682	1866
383013278683	1696
383013278684	1860
383013278685	1397
383013278686	856
383013278687	773
383013278688	827
383013278689	584
383013278690	890
383013278691	995
383013278692	1039
383013278693	1292
383013278694	1472
383013278695	1448
383013278696	1272
383013278697	1319
383013278698	1047
383013278699	1045
383013278700	1064
383013278701	1159
383013278702	1001
383013278703	1081
383013278704	1070
383013278705	1054
383013278706	1081
383013278707	1425
383013278708	1520
383013278709	1520
383013278710	1639
383013278711	1657
383013278712	860
383013278713	89
383013278714	807
383013278715	1296
383013278716	1296
383013278717	1590
383013278718	1593
383013278719	1793
383013278720	2066
383013278721	2354
383013278722	2988
383013278723	3723
383013278724	3244
383013278725	3114
383013278726	2617
383013278727	1746
383013278728	1354
383013278729	1158
383013278730	1324
383013278731	1601
383013278732	1078
383013278733	942
383013278734	478
383013278735	903
383013278736	997
383013278737	1562
383013278738	1150
383013278739	625
383013278740	1409
383013278741	1482
383013278742	1645
383013278743	1815
383013278744	1343
383013278745	1994
383013278746	2275
383013278747	2388
383013278748	2034
383013278749	2347
383013278750	1978
383013278751	1768
383013278752	1415
383013278753	1125
383013278754	1571
383013278755	1257
383013278756	2103
383013278757	982
383013278758	494
383013278759	382
383013278760	1605
383013278761	1351
383013278762	1027
383013278763	1365
383013278764	1451
383013278765	2377
383013278766	1504
383013278767	307
383013278768	0
383013278769	0
383013278770	13
383013278771	607
383013278772	804
383013278773	0
383013278774	153
383013278775	613
383013278776	873
383013278777	1079
383013278778	1356
383013278779	1073
383013278780	657
383013278781	3
383013278782	0
383013278783	0
383013278784	335
383013278785	537
383013278786	886
383013278787	1220
383013278788	1459
383013278789	2134
383013278790	2095
383013278791	2414
383013278792	2328
383013278793	2110
383013278794	2217
383013278795	2369
383013278796	1986
383013278797	2151
383013278798	2400
383013278799	2328
383013278800	2153
383013278801	2151
383013278802	2095
383013278803	2057
383013278804	1973
383013278805	1685
383013278806	1647
383013278807	1856
383013278808	1702
383013278809	1388
383013278810	262
383013278811	185
383013278812	1012
383013278813	1031
383013278814	1274
383013278815	1468
383013278816	1598
383013278817	1714
383013278818	1667
383013278819	1730
383013278820	1817
383013278821	1966
383013278822	1932
383013278823	1832
383013278824	1806
383013278825	1814
383013278826	1799
383013278827	1830
383013278828	1871
383013278829	1743
383013278830	1814
383013278831	1768
383013278832	1764
383013278833	1665
383013278834	1567
383013278835	1716
383013278836	1695
383013278837	1791
383013278838	1876
383013278839	1670
383013278840	1705
383013278841	1733
383013278842	1719
383013278843	1871
383013278844	1909
383013278845	1992
383013278846	2504
383013278847	2649
383013278848	2532
383013278849	2505
383013278850	2136
383013278851	1757
383013278852	1663
383013278853	1440
383013278854	1213
383013278855	1192
383013278856	940
383013278857	784
383013278858	660
383013278859	691
383013278860	531
383013278861	622
383013278862	752
383013278863	681
383013278864	918
383013278865	875
383013278866	977
383013278867	1115
383013278868	1313
383013278869	1302
383013278870	1254
383013278871	1226
383013278872	1307
383013278873	1355
383013278874	1333
383013278875	1391
383013278876	1355
383013278877	1411
383013278878	1378
383013278879	1353
383013278880	1086
383013278881	968
383013278882	963
383013278883	941
383013278884	902
383013278885	864
383013278886	782
383013278887	808
383013278888	801
383013278889	797
383013278890	831
383013278891	785
383013278892	693
383013278893	776
383013278894	975
383013278895	988
383013278896	1316
383013278897	1406
383013278898	1465
383013278899	1552
383013278900	1434
383013278901	1399
383013278902	1425
383013278903	1359
383013278904	1611
383013278905	1512
383013278906	1600
383013278907	1552
383013278908	1642
383013278909	1634
383013278910	1588
383013278911	1597
383013278912	1607
383013278913	1649
383013278914	1730
383013278915	1710
383013278916	1759
383013278917	1734
383013278918	1795
383013278919	1833
383013278920	1695
383013278921	1619
383013278922	1498
383013278923	1575
383013278924	1444
383013278925	1402
383013278926	1470
383013278927	1398
383013278928	1364
383013278929	1558
383013278930	1523
383013278931	1632
383013278932	1777
383013278933	1759
383013278934	1718
383013278935	1975
383013278936	2750
383013278937	1653
383013278938	1204
383013278939	1069
383013278940	1055
383013278941	936
383013278942	915
383013278943	1077
383013278944	896
383013278945	1063
383013278946	1097
383013278947	1148
383013278948	961
383013278949	684
383013278950	589
383013278951	642
383013278952	826
383013278953	989
383013278954	1012
383013278955	1119
383013278956	1147
383013278957	1125
383013278958	1129
383013278959	1233
383013278960	1346
383013278961	1313
383013278962	1259
383013278963	1220
383013278964	1384
383013278965	1417
383013278966	1436
383013278967	1303
383013278968	1254
383013278969	1372
383013278970	1522
383013278971	1593
383013278972	1498
383013278973	1635
383013278974	1739
383013278975	1750
383013278976	1786
383013278977	1782
383013278978	1711
383013278979	1714
383013278980	1678
383013278981	1598
383013278982	1490
383013278983	1506
383013278984	1553
383013278985	1601
383013278986	1606
383013278987	1619
383013278988	1567
383013278989	1576
383013278990	1652
383013278991	1627
383013278992	1546
383013278993	1498
383013278994	1454
383013278995	1464
383013278996	1494
383013278997	1429
383013278998	1333
383013278999	1396
383013279000	1384
383013279001	1353
383013279002	1241
383013279003	1154
383013279004	1103
383013279005	1164
383013279006	1120
383013279007	1053
383013279008	992
383013279009	605
383013279010	787
383013279011	968
383013279012	623
383013279013	693
383013279014	1070
383013279015	1152
383013279016	944
383013279017	1022
383013279018	837
383013279019	735
383013279020	1228
383013279021	1557
383013279022	1423
383013279023	1414
383013279024	1427
383013279025	1298
383013279026	1308
383013279027	1283
383013279028	1338
383013279029	1332
383013279030	1298
383013279031	1211
383013279032	768
383013279033	1327
383013279034	1291
383013279035	1004
383013279036	1075
383013279037	1553
383013279038	1540
383013279039	1410
383013279040	1469
383013279041	1543
383013279042	1337
383013279043	1270
383013279044	1248
383013279045	1249
383013279046	1317
383013279047	1477
383013279048	1431
383013279049	1329
383013279050	1379
383013279051	1753
383013279052	1743
383013279053	1537
383013279054	1303
383013279055	1184
383013279056	1034
383013279057	1106
383013279058	1310
383013279059	1290
383013279060	1221
383013279061	1803
383013279062	1916
383013279063	1645
383013279064	1806
383013279065	1548
383013279066	1242
383013279067	1727
383013279068	1866
383013279069	1383
383013279070	1566
383013279071	1674
383013279072	1659
383013279073	1646
383013279074	1587
383013279075	1769
383013279076	1587
383013279077	1252
383013279078	1232
383013279079	1497
383013279080	1065
383013279081	1283
383013279082	1840
383013279083	1837
383013279084	1706
383013279085	1720
383013279086	1808
383013279087	1551
383013279088	1359
383013279089	1291
383013279090	1457
383013279091	1640
383013279092	2089
383013279093	2308
383013279094	758
383013279095	468
383013279096	2434
383013279097	1009
383013279098	0
383013279099	412
383013279100	3088
383013279101	3622
383013279102	3280
383013279103	2379
383013279104	2531
383013279105	2065
383013279106	189
383013279107	2
383013279108	0
383013279109	1004
383013279110	1330
383013279111	538
383013279112	1475
383013279113	1528
383013279114	2802
383013279115	2633
383013279116	1265
383013279117	4088
383013279118	4090
383013279119	3376
383013279120	889
383013279121	2162
383013279122	2
383013279123	2
383013279124	0
383013279125	232
383013279126	664
383013279127	1961
383013279128	3676
383013279129	2900
383013279130	2421
383013279131	2434
383013279132	2371
383013279133	2241
383013279134	2016
383013279135	1790
383013279136	1635
383013279137	1553
383013279138	1610
383013279139	1578
383013279140	1732
383013279141	1798
383013279142	1740
383013279143	1751
383013279144	1720
383013279145	1596
383013279146	1657
383013279147	1616
383013279148	1653
383013279149	1714
383013279150	1637
383013279151	1584
383013279152	1501
383013279153	1479
383013279154	1482
383013279155	1562
383013279156	1555
383013279157	1589
383013279158	1498
383013279159	1484
383013279160	1523
383013279161	1490
383013279162	1514
383013279163	1532
383013279164	1485
383013279165	1464
383013279166	1409
383013279167	1431
383013279168	1348
383013279169	1398
383013279170	1467
383013279171	1478
383013279172	1445
383013279173	1358
383013279174	1370
383013279175	1355
383013279176	1346
383013279177	1432
383013279178	1185
383013279179	887
383013279180	1291
383013279181	1385
383013279182	1439
383013279183	1839
383013279184	1592
383013279185	1067
383013279186	1180
383013279187	1581
383013279188	1242
383013279189	1224
383013279190	1568
383013279191	1607
383013279192	1621
383013279193	1343
383013279194	1572
383013279195	1180
383013279196	1230
383013279197	1415
383013279198	1415
383013279199	1418
383013279200	1235
383013279201	1261
383013279202	1248
383013279203	932
383013279204	971
383013279205	1171
383013279206	1326
383013279207	1223
383013279208	1248
383013279209	1310
383013279210	1518
383013279211	1487
383013279212	1540
383013279213	1663
383013279214	1636
383013279215	1569
383013279216	1658
383013279217	1649
383013279218	1604
383013279219	1498
383013279220	1579
383013279221	1548
383013279222	1480
383013279223	1461
383013279224	1483
383013279225	1515
383013279226	1656
383013279227	1558
383013279228	253
383013279229	885
383013279230	1306
383013279231	1513
383013279232	1509
383013279233	1586
383013279234	1568
383013279235	1532
383013279236	1524
383013279237	1416
383013279238	1339
383013279239	1264
383013279240	1350
383013279241	1511
383013279242	1567
383013279243	1591
383013279244	1239
383013279245	1282
383013279246	1244
383013279247	1525
383013279248	1361
383013279249	1303
383013279250	1191
383013279251	1254
383013279252	1367
383013279253	1328
383013279254	1169
383013279255	1186
383013279256	1233
383013279257	1343
383013279258	1546
383013279259	1488
383013279260	1225
383013279261	1295
383013279262	1340
383013279263	1322
383013279264	1427
383013279265	1109
383013279266	1463
383013279267	1318
383013279268	1251
383013279269	1474
383013279270	1388
383013279271	1561
383013279272	1461
383013279273	1541
383013279274	1533
383013279275	1255
383013279276	1663
383013279277	1685
383013279278	1614
383013279279	1616
383013279280	1467
383013279281	1381
383013279282	1443
383013279283	1435
383013279284	1385
383013279285	1653
383013279286	1459
383013279287	1399
383013279288	1337
383013279289	1301
383013279290	1241
383013279291	1237
383013279292	1098
383013279293	1264
383013279294	1139
383013279295	1102
383013279296	924
383013279297	1196
383013279298	953
383013279299	1068
383013279300	1178
383013279301	903
383013279302	1136
383013279303	1163
383013279304	1015
383013279305	939
383013279306	1458
383013279307	1203
383013279308	616
383013279309	848
383013279310	1568
383013279311	1417
383013279312	1131
383013279313	2134
383013279314	1519
383013279315	1109
383013279316	1048
383013279317	984
383013279318	273
383013279319	397
383013279320	1048
383013279321	600
383013279322	1328
383013279323	1538
383013279324	1142
383013279325	1360
383013279326	1496
383013279327	1614
383013279328	1507
383013279329	1305
383013279330	1286
383013279331	1038
383013279332	849
383013279333	786
383013279334	864
383013279335	1171
383013279336	665
383013279337	873
383013279338	1431
383013279339	1544
383013279340	1419
383013279341	1310
383013279342	1571
383013279343	1472
383013279344	1448
383013279345	1456
383013279346	1443
383013279347	1502
383013279348	1554
383013279349	1561
383013279350	1599
383013279351	1647
383013279352	1506
383013279353	1510
383013279354	1446
383013279355	1411
383013279356	1262
383013279357	1325
383013279358	1416
383013279359	1176
383013279360	1433
383013279361	1288
383013279362	1393
383013279363	1166
383013279364	1311
383013279365	1349
383013279366	1223
383013279367	1130
383013279368	1161
383013279369	1172
383013279370	1143
383013279371	1130
383013279372	1161
383013279373	1302
383013279374	1373
383013279375	1486
383013279376	1456
383013279377	1526
383013279378	1587
383013279379	1595
383013279380	1478
383013279381	1398
383013279382	1403
383013279383	1423
383013279384	1404
383013279385	1473
383013279386	1340
383013279387	1338
383013279388	1407
383013279389	1301
383013279390	1374
383013279391	1339
383013279392	1310
383013279393	1459
383013279394	1464
383013279395	1384
383013279396	1457
383013279397	1459
383013279398	1397
383013279399	1479
383013279400	1474
383013279401	1538
383013279402	1498
383013279403	1572
383013279404	1515
383013279405	1635
383013279406	1587
383013279407	1518
383013279408	1498
383013279409	1512
383013279410	1498
383013279411	1481
383013279412	1482
383013279413	1419
383013279414	1416
383013279415	1352
383013279416	1488
383013279417	1477
383013279418	1417
383013279419	1494
383013279420	1446
383013279421	1668
383013279422	1582
383013279423	1499
383013279424	1320
383013279425	1465
383013279426	1364
383013279427	1213
383013279428	1128
383013279429	1016
383013279430	993
383013279431	883
383013279432	792
383013279433	777
383013279434	1069
383013279435	1473
383013279436	1667
383013279437	1749
383013279438	1620
383013279439	1488
383013279440	1473
383013279441	1585
383013279442	1578
383013279443	1427
383013279444	1403
383013279445	1416
383013279446	1478
383013279447	1361
383013279448	1280
383013279449	1230
383013279450	1242
383013279451	1252
383013279452	1456
383013279453	1380
383013279454	1383
383013279455	1590
383013279456	1755
383013279457	1647
383013279458	1529
383013279459	1570
383013279460	1472
383013279461	1313
383013279462	1374
383013279463	1220
383013279464	1166
383013279465	1092
383013279466	1275
383013279467	1242
383013279468	1265
383013279469	1194
383013279470	1122
383013279471	1316
383013279472	1298
383013279473	1271
383013279474	1308
383013279475	1410
383013279476	1389
383013279477	1492
383013279478	1486
383013279479	1378
383013279480	1445
383013279481	1569
383013279482	1550
383013279483	1582
383013279484	1523
383013279485	1502
383013279486	1497
383013279487	1528
383013279488	1542
383013279489	1514
383013279490	1423
383013279491	1456
383013279492	1434
383013279493	1478
383013279494	1433
383013279495	1579
383013279496	1545
383013279497	1618
383013279498	1682
383013279499	1656
383013279500	1612
383013279501	1829
383013279502	1859
383013279503	1836
383013279504	1734
383013279505	1827
383013279506	1667
383013279507	1756
383013279508	1695
383013279509	1434
383013279510	1271
383013279511	1271
383013279512	1278
383013279513	1310
383013279514	1192
383013279515	1085
383013279516	1119
383013279517	1125
383013279518	1286
383013279519	869
383013279520	880
383013279521	1047
383013279522	976
383013279523	1074
383013279524	1052
383013279525	1011
383013279526	1004
383013279527	1133
383013279528	1163
383013279529	1101
383013279530	1143
383013279531	1129
383013279532	1104
383013279533	1246
383013279534	1058
383013279535	1143
383013279536	1139
383013279537	1266
383013279538	1249
383013279539	1274
383013279540	1282
383013279541	1359
383013279542	1321
383013279543	1457
383013279544	1342
383013279545	1428
383013279546	1423
383013279547	1403
383013279548	1425
383013279549	1487
383013279550	1482
383013279551	1516
383013279552	1583
383013279553	1600
383013279554	1630
383013279555	1575
383013279556	1589
383013279557	1609
383013279558	1631
383013279559	1627
383013279560	1635
383013279561	1597
383013279562	1628
383013279563	1680
383013279564	1603
383013279565	1446
383013279566	1396
383013279567	1306
383013279568	1405
383013279569	1349
383013279570	1220
383013279571	1234
383013279572	1355
383013279573	1453
383013279574	1462
383013279575	1345
383013279576	1351
383013279577	1329
383013279578	1418
383013279579	1500
383013279580	1515
383013279581	1429
383013279582	1437
383013279583	1457
383013279584	1483
383013279585	1503
383013279586	1528
383013279587	1564
383013279588	1584
383013279589	1605
383013279590	1669
383013279591	1596
383013279592	1695
383013279593	1719
383013279594	1728
383013279595	1625
383013279596	1552
383013279597	1487
383013279598	1487
383013279599	1420
383013279600	1356
383013279601	1188
383013279602	1154
383013279603	1030
383013279604	871
383013279605	839
383013279606	665
383013279607	599
383013279608	578
383013279609	703
383013279610	724
383013279611	638
383013279612	679
383013279613	573
383013279614	774
383013279615	999
383013279616	1150
383013279617	1242
383013279618	1260
383013279619	1383
383013279620	1470
383013279621	1491
383013279622	1603
383013279623	1614
383013279624	1795
383013279625	1877
383013279626	1868
383013279627	1833
383013279628	1734
383013279629	1581
383013279630	1441
383013279631	1319
383013279632	1248
383013279633	1013
383013279634	917
383013279635	973
383013279636	1018
383013279637	1103
383013279638	1040
383013279639	1032
383013279640	1317
383013279641	1492
383013279642	1630
383013279643	1670
383013279644	1641
383013279645	1611
383013279646	1585
383013279647	1550
383013279648	1513
383013279649	1532
383013279650	1645
383013279651	1738
383013279652	1673
383013279653	1537
383013279654	1516
383013279655	1341
383013279656	1427
383013279657	1417
383013279658	1218
383013279659	1382
383013279660	1557
383013279661	1624
383013279662	1796
383013279663	1525
383013279664	1511
383013279665	1651
383013279666	1591
383013279667	1464
383013279668	1363
383013279669	1388
383013279670	1434
383013279671	1455
383013279672	1470
383013279673	1411
383013279674	1469
383013279675	1443
383013279676	1283
383013279677	1275
383013279678	1177
383013279679	1207
383013279680	1319
383013279681	1334
383013279682	1204
383013279683	1218
383013279684	1242
383013279685	1288
383013279686	1411
383013279687	1509
383013279688	1437
383013279689	1316
383013279690	1496
383013279691	1547
383013279692	1659
383013279693	1614
383013279694	1655
383013279695	1618
383013279696	1739
383013279697	1708
383013279698	1604
383013279699	1461
383013279700	1589
383013279701	1496
383013279702	1291
383013279703	1241
383013279704	1133
383013279705	1128
383013279706	1043
383013279707	965
383013279708	821
383013279709	811
383013279710	860
383013279711	941
383013279712	1025
383013279713	1062
383013279714	905
383013279715	808
383013279716	647
383013279717	617
383013279718	590
383013279719	788
383013279720	1294
383013279721	1464
383013279722	1299
383013279723	1276
383013279724	1553
383013279725	1568
383013279726	1589
383013279727	1678
383013279728	1627
383013279729	1524
383013279730	1463
383013279731	1591
383013279732	1588
383013279733	1638
383013279734	1626
383013279735	1621
383013279736	1695
383013279737	1795
383013279738	1759
383013279739	1690
383013279740	1581
383013279741	1636
383013279742	1679
383013279743	1551
383013279744	1450
383013279745	1287
383013279746	1347
383013279747	1293
383013279748	1319
383013279749	1322
383013279750	1239
383013279751	1164
383013279752	1126
383013279753	1146
383013279754	1157
383013279755	1158
383013279756	1136
383013279757	1182
383013279758	1277
383013279759	1267
383013279760	1207
383013279761	1180
383013279762	1171
383013279763	1198
383013279764	1277
383013279765	1332
383013279766	1413
383013279767	1497
383013279768	1579
383013279769	1606
383013279770	1618
383013279771	1648
383013279772	1561
383013279773	1670
383013279774	1613
383013279775	1588
383013279776	1485
383013279777	1404
383013279778	1408
383013279779	1383
383013279780	1356
383013279781	1262
383013279782	1387
383013279783	1330
383013279784	1328
383013279785	1156
383013279786	1200
383013279787	1305
383013279788	1418
383013279789	1575
383013279790	1827
383013279791	1628
383013279792	1382
383013279793	1299
383013279794	1534
383013279795	1617
383013279796	1604
383013279797	1600
383013279798	1490
383013279799	1490
383013279800	1530
383013279801	1523
383013279802	1377
383013279803	1731
383013279804	1389
383013279805	1166
383013279806	1125
383013279807	1022
383013279808	1001
383013279809	1262
383013279810	1256
383013279811	1422
383013279812	1350
383013279813	1306
383013279814	1277
383013279815	1260
383013279816	1396
383013279817	1431
383013279818	1930
383013279819	1798
383013279820	1557
383013279821	1408
383013279822	1299
383013279823	1266
383013279824	1548
383013279825	1570
383013279826	1402
383013279827	1390
383013279828	1330
383013279829	1256
383013279830	1298
383013279831	1426
383013279832	1374
383013279833	1390
383013279834	1471
383013279835	1541
383013279836	1545
383013279837	1368
383013279838	1216
383013279839	1100
383013279840	1179
383013279841	1122
383013279842	1167
383013279843	1325
383013279844	1243
383013279845	1198
383013279846	1159
383013279847	1121
383013279848	1136
383013279849	1164
383013279850	1308
383013279851	1267
383013279852	907
383013279853	1050
383013279854	1110
383013279855	1207
383013279856	1416
383013279857	1207
383013279858	1266
383013279859	1303
383013279860	1157
383013279861	1001
383013279862	934
383013279863	854
383013279864	1007
383013279865	1167
383013279866	1132
383013279867	1057
383013279868	1212
383013279869	1233
383013279870	1323
383013279871	1342
383013279872	1246
383013279873	1254
383013279874	1263
383013279875	1407
383013279876	1332
383013279877	1322
383013279878	1451
383013279879	1547
383013279880	1529
383013279881	1470
383013279882	1559
383013279883	1425
383013279884	1110
383013279885	1156
383013279886	1145
383013279887	1356
383013279888	1467
383013279889	1563
383013279890	1706
383013279891	1720
383013279892	1663
383013279893	1673
383013279894	1671
383013279895	1763
383013279896	1744
383013279897	1644
383013279898	1532
383013279899	1416
383013279900	1332
383013279901	1268
383013279902	1264
383013279903	1154
383013279904	1229
383013279905	1235
383013279906	1275
383013279907	1329
383013279908	1349
383013279909	1369
383013279910	1264
383013279911	1237
383013279912	1184
383013279913	1327
383013279914	1345
383013279915	1486
383013279916	1478
383013279917	1484
383013279918	1530
383013279919	1438
383013279920	1560
383013279921	1596
383013279922	1616
383013279923	1755
383013279924	1801
383013279925	1837
383013279926	1854
383013279927	1835
383013279928	1920
383013279929	1859
383013279930	1859
383013279931	1848
383013279932	1764
383013279933	1726
383013279934	1625
383013279935	1696
383013279936	1620
383013279937	1429
383013279938	1337
383013279939	1239
383013279940	1161
383013279941	1186
383013279942	1170
383013279943	1115
383013279944	1001
383013279945	1013
383013279946	1136
383013279947	1093
383013279948	1102
383013279949	1092
383013279950	1099
383013279951	1034
383013279952	1002
383013279953	1059
383013279954	1068
383013279955	1163
383013279956	1277
383013279957	1330
383013279958	1325
383013279959	1241
383013279960	1155
383013279961	1149
383013279962	1254
383013279963	1261
383013279964	1284
383013279965	1284
383013279966	1237
383013279967	1162
383013279968	1134
383013279969	1021
383013279970	942
383013279971	898
383013279972	937
383013279973	1158
383013279974	987
383013279975	740
383013279976	696
383013279977	705
383013279978	737
383013279979	760
383013279980	1147
383013279981	1512
383013279982	1799
383013279983	1410
383013279984	1069
383013279985	1396
383013279986	1663
383013279987	1626
383013279988	1808
383013279989	1722
383013279990	1753
383013279991	2971
383013279992	2368
383013279993	2267
383013279994	1660
383013279995	2050
383013279996	2219
383013279997	2256
383013279998	2169
383013279999	2348
383013280000	2300
383013280001	2084
383013280002	1889
383013280003	2146
383013280004	2179
383013280005	2508
383013280006	2560
383013280007	3260
383013280008	3763
383013280009	3737
383013280010	3389
383013280011	2457
383013280012	1720
383013280013	2302
383013280014	2320
383013280015	1798
383013280016	1447
383013280017	1421
383013280018	1245
383013280019	1260
383013280020	1220
383013280021	1336
383013280022	1252
383013280023	1518
383013280024	1530
383013280025	1415
383013280026	1287
383013280027	855
383013280028	645
383013280029	1189
383013280030	1412
383013280031	1302
383013280032	1405
383013280033	671
383013280034	675
383013280035	434
383013280036	651
383013280037	1082
383013280038	1226
383013280039	1499
383013280040	447
383013280041	310
383013280042	752
383013280043	977
383013280044	1139
383013280045	1329
383013280046	1653
383013280047	873
383013280048	831
383013280049	751
383013280050	442
383013280051	314
383013280052	723
383013280053	1051
383013280054	1347
383013280055	1215
383013280056	1017
383013280057	912
383013280058	1035
383013280059	1388
383013280060	1477
383013280061	1232
383013280062	1157
383013280063	1042
383013280064	972
383013280065	1236
383013280066	1154
383013280067	915
383013280068	883
383013280069	1034
383013280070	1060
383013280071	860
383013280072	719
383013280073	934
383013280074	917
383013280075	911
383013280076	1000
383013280077	1081
383013280078	1322
383013280079	1390
383013280080	1216
383013280081	1783
383013280082	1684
383013280083	1327
383013280084	1245
383013280085	1224
383013280086	1168
383013280087	1204
383013280088	1107
383013280089	990
383013280090	1040
383013280091	1045
383013280092	1019
383013280093	947
383013280094	971
383013280095	1047
383013280096	1088
383013280097	1085
383013280098	1077
383013280099	1025
383013280100	759
383013280101	710
383013280102	934
383013280103	1125
383013280104	1416
383013280105	1315
383013280106	1213
383013280107	1317
383013280108	1285
383013280109	1336
383013280110	1275
383013280111	1172
383013280112	1053
383013280113	1436
383013280114	1717
383013280115	1502
383013280116	1103
383013280117	1018
383013280118	1170
383013280119	1660
383013280120	1490
383013280121	1283
383013280122	1590
383013280123	1502
383013280124	1294
383013280125	1264
383013280126	1253
383013280127	1132
383013280128	1265
383013280129	1063
383013280130	1151
383013280131	1097
383013280132	1155
383013280133	1243
383013280134	1079
383013280135	864
383013280136	1212
383013280137	1379
383013280138	1420
383013280139	1229
383013280140	975
383013280141	1133
383013280142	1217
383013280143	1180
383013280144	1097
383013280145	1088
383013280146	1261
383013280147	1264
383013280148	1230
383013280149	979
383013280150	800
383013280151	816
383013280152	1181
383013280153	1369
383013280154	1179
383013280155	1245
383013280156	1327
383013280157	1621
383013280158	1578
383013280159	1316
383013280160	1385
383013280161	1449
383013280162	1522
383013280163	1437
383013280164	1326
383013280165	1450
383013280166	1591
383013280167	1559
383013280168	1585
383013280169	1488
383013280170	1406
383013280171	1421
383013280172	1456
383013280173	1521
383013280174	1450
383013280175	1412
383013280176	1422
383013280177	1477
383013280178	1484
383013280179	1493
383013280180	1479
383013280181	1502
383013280182	1515
383013280183	1416
383013280184	1368
383013280185	1379
383013280186	1335
383013280187	1366
383013280188	1335
383013280189	1251
383013280190	1289
383013280191	1368
383013280192	1484
383013280193	1526
383013280194	1467
383013280195	1416
383013280196	1431
383013280197	1481
383013280198	1499
383013280199	1467
383013280200	1406
383013280201	1416
383013280202	1472
383013280203	1483
383013280204	1421
383013280205	1362
383013280206	1362
383013280207	1349
383013280208	1377
383013280209	1382
383013280210	1395
383013280211	1440
383013280212	1438
383013280213	1418
383013280214	1394
383013280215	1335
383013280216	1358
383013280217	1438
383013280218	1532
383013280219	1508
383013280220	1458
383013280221	1423
383013280222	1386
383013280223	1422
383013280224	1425
383013280225	1424
383013280226	1422
383013280227	1486
383013280228	1501
383013280229	1510
383013280230	1498
383013280231	1414
383013280232	1372
383013280233	1370
383013280234	1372
383013280235	1358
383013280236	1332
383013280237	1343
383013280238	1364
383013280239	1398
383013280240	1353
383013280241	1268
383013280242	1261
383013280243	1326
383013280244	1358
383013280245	1320
383013280246	1322
383013280247	1266
383013280248	1272
383013280249	1378
383013280250	1351
383013280251	1310
383013280252	1360
383013280253	1381
383013280254	1399
383013280255	1439
383013280256	1408
383013280257	1354
383013280258	1362
383013280259	1411
383013280260	1408
383013280261	1399
383013280262	1436
383013280263	1436
383013280264	1442
383013280265	1443
383013280266	1363
383013280267	1301
383013280268	1306
383013280269	1336
383013280270	1325
383013280271	1245
383013280272	1276
383013280273	1342
383013280274	1369
383013280275	1438
383013280276	1454
383013280277	1438
383013280278	1383
383013280279	1414
383013280280	1377
383013280281	1332
383013280282	1348
383013280283	1348
383013280284	1415
383013280285	1566
383013280286	1637
383013280287	1536
383013280288	1546
383013280289	1511
383013280290	1603
383013280291	1614
383013280292	1546
383013280293	1552
383013280294	1536
383013280295	1566
383013280296	1393
383013280297	1433
383013280298	1539
383013280299	1560
383013280300	1482
383013280301	1481
383013280302	1277
383013280303	1356
383013280304	1432
383013280305	1616
383013280306	1582
383013280307	1635
383013280308	1285
383013280309	1179
383013280310	1347
383013280311	1440
383013280312	1414
383013280313	1416
383013280314	1336
383013280315	1262
383013280316	1369
383013280317	1388
383013280318	1320
383013280319	1326
383013280320	1394
383013280321	1511
383013280322	1515
383013280323	1495
383013280324	1735
383013280325	1716
383013280326	1834
383013280327	2001
383013280328	2130
383013280329	2302
383013280330	1837
383013280331	1376
383013280332	1593
383013280333	1693
383013280334	1611
383013280335	1592
383013280336	1312
383013280337	1508
383013280338	1605
383013280339	1366
383013280340	751
383013280341	982
383013280342	1780
383013280343	2757
383013280344	2766
383013280345	1818
383013280346	1460
383013280347	1988
383013280348	1373
383013280349	244
383013280350	1763
383013280351	3484
383013280352	4090
383013280353	3710
383013280354	4088
383013280355	3206
383013280356	2024
383013280357	3337
383013280358	4088
383013280359	2066
383013280360	1
383013280361	0
383013280362	2
383013280363	1
383013280364	0
383013280365	0
383013280366	0
383013280367	0
383013280368	3
383013280369	3
383013280370	0
383013280371	1
383013280372	1
383013280373	2
383013280374	2
383013280375	1
383013280376	384
383013280377	2659
383013280378	3723
383013280379	3103
383013280380	1358
383013280381	1961
383013280382	2907
383013280383	4090
383013280384	3738
383013280385	4087
383013280386	4090
383013280387	4091
383013280388	2969
383013280389	4090
383013280390	4089
383013280391	3433
383013280392	1471
383013280393	1181
383013280394	1838
383013280395	1138
383013280396	999
383013280397	2010
383013280398	3004
383013280399	2528
383013280400	2802
383013280401	3609
383013280402	3196
383013280403	2918
383013280404	2854
383013280405	2947
383013280406	2420
383013280407	1118
383013280408	409
383013280409	199
383013280410	0
383013280411	206
383013280412	935
383013280413	1640
383013280414	1825
383013280415	2153
383013280416	2748
383013280417	2065
383013280418	3495
383013280419	3182
383013280420	2401
383013280421	2281
383013280422	2911
383013280423	3226
383013280424	3115
383013280425	3218
383013280426	3655
383013280427	2807
383013280428	1804
383013280429	1617
383013280430	1491
383013280431	1299
383013280432	2240
383013280433	1939
383013280434	1057
383013280435	785
383013280436	704
383013280437	350
383013280438	1397
383013280439	1995
383013280440	2068
383013280441	1904
383013280442	1537
383013280443	1252
383013280444	603
383013280445	337
383013280446	364
383013280447	399
383013280448	364
383013280449	340
383013280450	633
383013280451	564
383013280452	864
383013280453	2131
383013280454	1954
383013280455	1353
383013280456	1238
383013280457	1342
383013280458	1034
383013280459	816
383013280460	1116
383013280461	906
383013280462	1226
383013280463	991
383013280464	752
383013280465	980
383013280466	1020
383013280467	1190
383013280468	1265
383013280469	1439
383013280470	1445
383013280471	1437
383013280472	1269
383013280473	1364
383013280474	1736
383013280475	1531
383013280476	1447
383013280477	1702
383013280478	1663
383013280479	1574
383013280480	1639
383013280481	1464
383013280482	1466
383013280483	1569
383013280484	1921
383013280485	1799
383013280486	1493
383013280487	1242
383013280488	1322
383013280489	1120
383013280490	616
383013280491	444
383013280492	711
383013280493	1083
383013280494	995
383013280495	1070
383013280496	1308
383013280497	1047
383013280498	678
383013280499	908
383013280500	1055
383013280501	1154
383013280502	1054
383013280503	1443
383013280504	1353
383013280505	1347
383013280506	1534
383013280507	1601
383013280508	1534
383013280509	1296
383013280510	1328
383013280511	1275
383013280512	1033
383013280513	1004
383013280514	1231
383013280515	1137
383013280516	1272
383013280517	1349
383013280518	1190
383013280519	1604
383013280520	1714
383013280521	1876
383013280522	2141
383013280523	2266
383013280524	2005
383013280525	2295
383013280526	2788
383013280527	2443
383013280528	1327
383013280529	1477
383013280530	1839
383013280531	2823
383013280532	2678
383013280533	3130
383013280534	2431
383013280535	2300
383013280536	1883
383013280537	1859
383013280538	2188
383013280539	3058
383013280540	3193
383013280541	3018
383013280542	2369
383013280543	2470
383013280544	1774
383013280545	1664
383013280546	1892
383013280547	3361
383013280548	3763
383013280549	3891
383013280550	2496
383013280551	1091
383013280552	1955
383013280553	1760
383013280554	735
383013280555	1
383013280556	32
383013280557	167
383013280558	1454
383013280559	1356
383013280560	860
383013280561	1043
383013280562	1349
383013280563	1765
383013280564	3790
383013280565	4090
383013280566	4012
383013280567	416
383013280568	0
383013280569	0
383013280570	2
383013280571	0
383013280572	2504
383013280573	666
383013280574	4088
383013280575	4
383013280576	3841
383013280577	4
383013280578	460
383013280579	204
383013280580	2376
383013280581	4089
383013280582	4089
383013280583	4087
383013280584	4089
383013280585	4090
383013280586	2955
383013280587	1232
383013280588	2846
383013280589	3
383013280590	0
383013280591	1
383013280592	1
383013280593	1
383013280594	2
383013280595	0
383013280596	2
383013280597	2
383013280598	704
383013280599	322
383013280600	4
383013280601	1108
383013280602	2071
383013280603	2315
383013280604	4067
383013280605	4089
383013280606	4091
383013280607	3211
383013280608	3928
383013280609	4089
383013280610	4088
383013280611	3705
383013280612	3706
383013280613	3830
383013280614	2763
383013280615	1711
383013280616	696
383013280617	68
383013280618	1
383013280619	1
383013280620	0
383013280621	0
383013280622	1
383013280623	159
383013280624	0
383013280625	788
383013280626	2732
383013280627	2254
383013280628	3236
383013280629	3181
383013280630	3486
383013280631	2022
383013280632	1630
383013280633	2462
383013280634	2440
383013280635	1656
383013280636	1
383013280637	42
383013280638	29
383013280639	0
383013280640	135
383013280641	1006
383013280642	1679
383013280643	0
383013280644	0
383013280645	0
383013280646	1
383013280647	0
383013280648	0
383013280649	0
383013280650	0
383013280651	4
383013280652	0
383013280653	597
383013280654	2630
383013280655	4088
383013280656	4088
383013280657	4014
383013280658	4090
383013280659	4088
383013280660	4087
383013280661	4090
383013280662	4089
383013280663	4089
383013280664	4089
383013280665	4086
383013280666	3703
383013280667	2709
383013280668	2148
383013280669	557
383013280670	356
383013280671	0
383013280672	0
383013280673	0
383013280674	0
383013280675	2
383013280676	253
383013280677	219
383013280678	0
383013280679	0
383013280680	0
383013280681	558
383013280682	1131
383013280683	718
383013280684	968
383013280685	579
383013280686	190
383013280687	908
383013280688	1129
383013280689	1601
383013280690	2226
383013280691	2403
383013280692	3476
383013280693	3457
383013280694	4084
383013280695	3460
383013280696	3043
383013280697	2943
383013280698	2649
383013280699	2882
383013280700	2641
383013280701	3005
383013280702	2898
383013280703	2998
383013280704	3094
383013280705	2857
383013280706	2694
383013280707	2566
383013280708	2586
383013280709	2586
383013280710	2469
383013280711	2435
383013280712	2221
383013280713	2211
383013280714	2011
383013280715	2030
383013280716	1925
383013280717	1771
383013280718	1797
383013280719	1723
383013280720	1628
383013280721	1714
383013280722	1772
383013280723	1836
383013280724	1696
383013280725	1648
383013280726	1510
383013280727	1513
383013280728	1599
383013280729	1824
383013280730	1768
383013280731	1722
383013280732	1691
383013280733	1581
383013280734	1557
383013280735	1585
383013280736	1522
383013280737	1424
383013280738	1454
383013280739	1403
383013280740	1412
383013280741	1342
383013280742	1288
383013280743	1277
383013280744	1258
383013280745	1312
383013280746	1310
383013280747	1284
383013280748	1378
383013280749	1538
383013280750	1500
383013280751	1172
383013280752	897
383013280753	868
383013280754	414
383013280755	120
383013280756	700
383013280757	0
383013280758	1308
383013280759	2111
383013280760	3062
383013280761	3081
383013280762	2808
383013280763	2277
383013280764	2894
383013280765	4091
383013280766	3
383013280767	3
383013280768	0
383013280769	1210
383013280770	1545
383013280771	850
383013280772	1
383013280773	486
383013280774	3
383013280775	0
383013280776	6
383013280777	1
383013280778	635
383013280779	4
383013280780	0
383013280781	3
383013280782	0
383013280783	2588
383013280784	2083
383013280785	2394
383013280786	2818
383013280787	3762
383013280788	0
383013280789	1339
383013280790	3321
383013280791	2308
383013280792	2118
383013280793	3541
383013280794	2270
383013280795	3059
383013280796	3341
383013280797	4088
383013280798	3723
383013280799	2819
383013280800	3325
383013280801	2222
383013280802	599
383013280803	917
383013280804	1
383013280805	676
383013280806	1
383013280807	0
383013280808	1185
383013280809	229
383013280810	1
383013280811	0
383013280812	428
383013280813	1221
383013280814	1047
383013280815	2182
383013280816	2403
383013280817	2492
383013280818	2162
383013280819	52
383013280820	2106
383013280821	3706
383013280822	3950
383013280823	4090
383013280824	4091
383013280825	4088
383013280826	4087
383013280827	3879
383013280828	3011
383013280829	3729
383013280830	2
383013280831	2
383013280832	1
383013280833	0
383013280834	1
383013280835	1
383013280836	1
383013280837	2
383013280838	0
383013280839	926
383013280840	1
383013280841	2
383013280842	473
383013280843	1950
383013280844	2919
383013280845	3321
383013280846	3382
383013280847	3601
383013280848	1806
383013280849	4089
383013280850	3767
383013280851	3660
383013280852	0
383013280853	3807
383013280854	4089
383013280855	4089
383013280856	4090
383013280857	4089
383013280858	3631
383013280859	4090
383013280860	4004
383013280861	1639
383013280862	2846
383013280863	1815
383013280864	2251
383013280865	4066
383013280866	4092
383013280867	4088
383013280868	4089
383013280869	4088
383013280870	3305
383013280871	1
383013280872	3
383013280873	0
383013280874	1031
383013280875	1244
383013280876	0
383013280877	2
383013280878	402
383013280879	1
383013280880	0
383013280881	4
383013280882	2
383013280883	0
383013280884	3
383013280885	0
383013280886	3
383013280887	321
383013280888	0
383013280889	514
383013280890	3434
383013280891	4089
383013280892	4089
383013280893	4089
383013280894	4086
383013280895	4087
383013280896	4089
383013280897	4089
383013280898	4091
383013280899	4089
383013280900	4089
383013280901	4088
383013280902	3786
383013280903	2996
383013280904	2291
383013280905	3026
383013280906	1935
383013280907	3942
383013280908	3169
383013280909	3576
383013280910	5
383013280911	0
383013280912	996
383013280913	1683
383013280914	3022
383013280915	2956
383013280916	1342
383013280917	0
383013280918	162
383013280919	658
383013280920	527
383013280921	0
383013280922	0
383013280923	244
383013280924	949
383013280925	3
383013280926	2
383013280927	2
383013280928	2
383013280929	2003
383013280930	1169
383013280931	3124
383013280932	3832
383013280933	1
383013280934	359
383013280935	1654
383013280936	2900
383013280937	3
383013280938	1
383013280939	0
383013280940	2911
383013280941	4088
383013280942	4088
383013280943	4089
383013280944	4088
383013280945	4088
383013280946	4088
383013280947	4090
383013280948	4089
383013280949	4085
383013280950	4089
383013280951	4085
383013280952	4011
383013280953	3048
383013280954	4088
383013280955	4086
383013280956	4089
383013280957	4090
383013280958	3862
383013280959	4088
383013280960	4004
383013280961	4089
383013280962	4072
383013280963	3953
383013280964	3822
383013280965	3736
383013280966	2874
383013280967	3473
383013280968	2820
383013280969	2479
383013280970	1512
383013280971	1046
383013280972	2044
383013280973	2029
383013280974	1784
383013280975	1959
383013280976	2110
383013280977	2273
383013280978	2763
383013280979	3135
383013280980	2290
383013280981	2133
383013280982	2907
383013280983	3425
383013280984	2408
383013280985	1559
383013280986	971
383013280987	1524
383013280988	1567
383013280989	1429
383013280990	1508
383013280991	902
383013280992	0
383013280993	0
383013280994	5
383013280995	3
383013280996	0
383013280997	1
383013280998	1
383013280999	0
383013281000	0
383013281001	0
383013281002	0
383013281003	0
383013281004	1
383013281005	1
383013281006	0
383013281007	1
383013281008	114
383013281009	2527
383013281010	3816
383013281011	1
383013281012	889
383013281013	536
383013281014	75
383013281015	614
383013281016	2671
383013281017	4088
383013281018	4089
383013281019	4088
383013281020	4088
383013281021	3940
383013281022	4089
383013281023	3998
383013281024	2499
383013281025	2804
383013281026	4019
383013281027	4089
383013281028	4087
383013281029	4088
383013281030	4089
383013281031	4051
383013281032	4089
383013281033	4089
383013281034	3748
383013281035	4088
383013281036	4086
383013281037	4089
383013281038	4090
383013281039	4091
383013281040	4090
383013281041	4091
383013281042	3941
383013281043	4090
383013281044	3151
383013281045	3008
383013281046	868
383013281047	4
383013281048	514
383013281049	0
383013281050	399
383013281051	1095
383013281052	176
383013281053	654
383013281054	1806
383013281055	932
383013281056	1372
383013281057	1837
383013281058	1039
383013281059	2922
383013281060	1749
383013281061	2
383013281062	219
383013281063	0
383013281064	3
383013281065	1
383013281066	0
383013281067	1
383013281068	1
383013281069	0
383013281070	1022
383013281071	0
383013281072	110
383013281073	0
383013281074	242
383013281075	0
383013281076	0
383013281077	0
383013281078	2
383013281079	0
383013281080	0
383013281081	0
383013281082	127
