383021266184	1354
383021266185	1356
383021266186	1357
383021266187	1356
383021266188	1356
383021266189	1359
383021266190	1358
383021266191	1358
383021266192	1355
383021266193	1358
383021266194	1354
383021266195	1356
383021266196	1356
383021266197	1355
383021266198	1357
383021266199	1360
383021266200	1356
383021266201	1355
383021266202	1356
383021266203	1356
383021266204	1355
383021266205	1356
383021266206	1356
383021266207	1355
383021266208	1354
383021266209	1354
383021266210	1355
383021266211	1356
383021266212	1353
383021266213	1355
383021266214	1355
383021266215	1358
383021266216	1360
383021266217	1358
383021266218	1358
383021266219	1356
383021266220	1356
383021266221	1355
383021266222	1357
383021266223	1356
383021266224	1357
383021266225	1354
383021266226	1357
383021266227	1362
383021266228	1361
383021266229	1360
383021266230	1360
383021266231	1359
383021266232	1360
383021266233	1360
383021266234	1361
383021266235	1360
383021266236	1360
383021266237	1361
383021266238	1361
383021266239	1361
383021266240	1362
383021266241	1361
383021266242	1362
383021266243	1361
383021266244	1359
383021266245	1360
383021266246	1360
383021266247	1361
383021266248	1363
383021266249	1358
383021266250	1358
383021266251	1359
383021266252	1361
383021266253	1364
383021266254	1364
383021266255	1362
383021266256	1362
383021266257	1364
383021266258	1361
383021266259	1365
383021266260	1362
383021266261	1364
383021266262	1364
383021266263	1362
383021266264	1359
383021266265	1357
383021266266	1356
383021266267	1359
383021266268	1363
383021266269	1362
383021266270	1360
383021266271	1357
383021266272	1359
383021266273	1362
383021266274	1363
383021266275	1364
383021266276	1362
383021266277	1360
383021266278	1359
383021266279	1360
383021266280	1359
383021266281	1362
383021266282	1360
383021266283	1363
383021266284	1365
383021266285	1364
383021266286	1367
383021266287	1365
383021266288	1364
383021266289	1360
383021266290	1362
383021266291	1363
383021266292	1362
383021266293	1362
383021266294	1358
383021266295	1358
383021266296	1359
383021266297	1358
383021266298	1360
383021266299	1355
383021266300	1356
383021266301	1359
383021266302	1361
383021266303	1357
383021266304	1359
383021266305	1361
383021266306	1362
383021266307	1361
383021266308	1356
383021266309	1358
383021266310	1366
383021266311	1377
383021266312	1398
383021266313	1431
383021266314	1482
383021266315	1525
383021266316	1540
383021266317	1509
383021266318	1424
383021266319	1332
383021266320	1290
383021266321	1269
383021266322	1260
383021266323	1268
383021266324	1278
383021266325	1292
383021266326	1307
383021266327	1320
383021266328	1337
383021266329	1348
383021266330	1354
383021266331	1355
383021266332	1355
383021266333	1356
383021266334	1356
383021266335	1360
383021266336	1360
383021266337	1361
383021266338	1362
383021266339	1361
383021266340	1361
383021266341	1364
383021266342	1362
383021266343	1365
383021266344	1364
383021266345	1366
383021266346	1362
383021266347	1360
383021266348	1363
383021266349	1364
383021266350	1365
383021266351	1367
383021266352	1366
383021266353	1366
383021266354	1366
383021266355	1366
383021266356	1366
383021266357	1366
383021266358	1368
383021266359	1369
383021266360	1370
383021266361	1371
383021266362	1368
383021266363	1372
383021266364	1375
383021266365	1376
383021266366	1375
383021266367	1376
383021266368	1378
383021266369	1381
383021266370	1382
383021266371	1381
383021266372	1382
383021266373	1384
383021266374	1386
383021266375	1385
383021266376	1385
383021266377	1385
383021266378	1388
383021266379	1388
383021266380	1388
383021266381	1389
383021266382	1388
383021266383	1388
383021266384	1383
383021266385	1383
383021266386	1379
383021266387	1375
383021266388	1375
383021266389	1372
383021266390	1367
383021266391	1360
383021266392	1354
383021266393	1351
383021266394	1348
383021266395	1344
383021266396	1341
383021266397	1340
383021266398	1336
383021266399	1335
383021266400	1334
383021266401	1337
383021266402	1336
383021266403	1336
383021266404	1338
383021266405	1337
383021266406	1340
383021266407	1341
383021266408	1343
383021266409	1345
383021266410	1346
383021266411	1347
383021266412	1347
383021266413	1349
383021266414	1351
383021266415	1350
383021266416	1352
383021266417	1354
383021266418	1357
383021266419	1361
383021266420	1362
383021266421	1358
383021266422	1362
383021266423	1363
383021266424	1361
383021266425	1362
383021266426	1363
383021266427	1363
383021266428	1362
383021266429	1362
383021266430	1362
383021266431	1364
383021266432	1363
383021266433	1363
383021266434	1362
383021266435	1363
383021266436	1367
383021266437	1365
383021266438	1364
383021266439	1364
383021266440	1363
383021266441	1360
383021266442	1362
383021266443	1362
383021266444	1363
383021266445	1365
383021266446	1363
383021266447	1360
383021266448	1361
383021266449	1362
383021266450	1361
383021266451	1362
383021266452	1362
383021266453	1361
383021266454	1359
383021266455	1355
383021266456	1358
383021266457	1361
383021266458	1359
383021266459	1359
383021266460	1359
383021266461	1362
383021266462	1364
383021266463	1361
383021266464	1359
383021266465	1359
383021266466	1360
383021266467	1360
383021266468	1362
383021266469	1361
383021266470	1359
383021266471	1362
383021266472	1362
383021266473	1361
383021266474	1360
383021266475	1362
383021266476	1361
383021266477	1364
383021266478	1363
383021266479	1362
383021266480	1361
383021266481	1361
383021266482	1363
383021266483	1363
383021266484	1360
383021266485	1365
383021266486	1366
383021266487	1365
383021266488	1364
383021266489	1369
383021266490	1365
383021266491	1364
383021266492	1361
383021266493	1365
383021266494	1366
383021266495	1366
383021266496	1366
383021266497	1366
383021266498	1363
383021266499	1363
383021266500	1365
383021266501	1365
383021266502	1367
383021266503	1366
383021266504	1365
383021266505	1369
383021266506	1369
383021266507	1370
383021266508	1367
383021266509	1369
383021266510	1367
383021266511	1370
383021266512	1367
383021266513	1369
383021266514	1369
383021266515	1368
383021266516	1367
383021266517	1367
383021266518	1366
383021266519	1367
383021266520	1367
383021266521	1368
383021266522	1367
383021266523	1368
383021266524	1369
383021266525	1368
383021266526	1369
383021266527	1367
383021266528	1365
383021266529	1368
383021266530	1367
383021266531	1372
383021266532	1370
383021266533	1374
383021266534	1373
383021266535	1370
383021266536	1368
383021266537	1370
383021266538	1370
383021266539	1370
383021266540	1367
383021266541	1370
383021266542	1370
383021266543	1369
383021266544	1369
383021266545	1368
383021266546	1367
383021266547	1365
383021266548	1368
383021266549	1367
383021266550	1367
383021266551	1369
383021266552	1372
383021266553	1372
383021266554	1374
383021266555	1377
383021266556	1376
383021266557	1376
383021266558	1373
383021266559	1373
383021266560	1370
383021266561	1370
383021266562	1370
383021266563	1370
383021266564	1369
383021266565	1367
383021266566	1367
383021266567	1368
383021266568	1367
383021266569	1366
383021266570	1367
383021266571	1366
383021266572	1364
383021266573	1360
383021266574	1363
383021266575	1367
383021266576	1365
383021266577	1365
383021266578	1361
383021266579	1359
383021266580	1364
383021266581	1374
383021266582	1390
383021266583	1409
383021266584	1439
383021266585	1480
383021266586	1509
383021266587	1504
383021266588	1454
383021266589	1375
383021266590	1294
383021266591	1264
383021266592	1251
383021266593	1249
383021266594	1257
383021266595	1278
383021266596	1293
383021266597	1312
383021266598	1328
383021266599	1341
383021266600	1356
383021266601	1365
383021266602	1370
383021266603	1371
383021266604	1372
383021266605	1375
383021266606	1374
383021266607	1376
383021266608	1375
383021266609	1375
383021266610	1373
383021266611	1375
383021266612	1375
383021266613	1376
383021266614	1377
383021266615	1375
383021266616	1376
383021266617	1377
383021266618	1375
383021266619	1374
383021266620	1374
383021266621	1374
383021266622	1374
383021266623	1375
383021266624	1375
383021266625	1375
383021266626	1375
383021266627	1374
383021266628	1376
383021266629	1376
383021266630	1376
383021266631	1376
383021266632	1376
383021266633	1376
383021266634	1377
383021266635	1376
383021266636	1377
383021266637	1379
383021266638	1376
383021266639	1378
383021266640	1380
383021266641	1381
383021266642	1380
383021266643	1381
383021266644	1382
383021266645	1385
383021266646	1386
383021266647	1386
383021266648	1385
383021266649	1385
383021266650	1384
383021266651	1384
383021266652	1382
383021266653	1383
383021266654	1381
383021266655	1380
383021266656	1377
383021266657	1373
383021266658	1371
383021266659	1372
383021266660	1361
383021266661	1359
383021266662	1354
383021266663	1351
383021266664	1346
383021266665	1344
383021266666	1341
383021266667	1338
383021266668	1337
383021266669	1335
383021266670	1333
383021266671	1332
383021266672	1326
383021266673	1332
383021266674	1332
383021266675	1335
383021266676	1334
383021266677	1336
383021266678	1337
383021266679	1336
383021266680	1342
383021266681	1344
383021266682	1344
383021266683	1344
383021266684	1347
383021266685	1348
383021266686	1348
383021266687	1350
383021266688	1352
383021266689	1351
383021266690	1352
383021266691	1353
383021266692	1354
383021266693	1355
383021266694	1356
383021266695	1356
383021266696	1356
383021266697	1359
383021266698	1360
383021266699	1358
383021266700	1360
383021266701	1359
383021266702	1360
383021266703	1360
383021266704	1360
383021266705	1359
383021266706	1360
383021266707	1360
383021266708	1361
383021266709	1361
383021266710	1360
383021266711	1360
383021266712	1360
383021266713	1360
383021266714	1361
383021266715	1361
383021266716	1361
383021266717	1362
383021266718	1360
383021266719	1360
383021266720	1362
383021266721	1362
383021266722	1363
383021266723	1361
383021266724	1360
383021266725	1361
383021266726	1362
383021266727	1362
383021266728	1360
383021266729	1359
383021266730	1359
383021266731	1360
383021266732	1357
383021266733	1359
383021266734	1360
383021266735	1360
383021266736	1362
383021266737	1358
383021266738	1364
383021266739	1362
383021266740	1362
383021266741	1362
383021266742	1364
383021266743	1363
383021266744	1362
383021266745	1362
383021266746	1363
383021266747	1361
383021266748	1365
383021266749	1367
383021266750	1363
383021266751	1365
383021266752	1363
383021266753	1363
383021266754	1364
383021266755	1360
383021266756	1362
383021266757	1361
383021266758	1364
383021266759	1363
383021266760	1362
383021266761	1362
383021266762	1362
383021266763	1361
383021266764	1362
383021266765	1365
383021266766	1364
383021266767	1369
383021266768	1366
383021266769	1365
383021266770	1364
383021266771	1363
383021266772	1363
383021266773	1363
383021266774	1363
383021266775	1364
383021266776	1364
383021266777	1365
383021266778	1364
383021266779	1364
383021266780	1362
383021266781	1362
383021266782	1362
383021266783	1362
383021266784	1361
383021266785	1363
383021266786	1362
383021266787	1361
383021266788	1364
383021266789	1362
383021266790	1360
383021266791	1360
383021266792	1365
383021266793	1362
383021266794	1363
383021266795	1360
383021266796	1357
383021266797	1359
383021266798	1360
383021266799	1362
383021266800	1362
383021266801	1360
383021266802	1360
383021266803	1360
383021266804	1360
383021266805	1362
383021266806	1361
383021266807	1361
383021266808	1362
383021266809	1362
383021266810	1362
383021266811	1365
383021266812	1362
383021266813	1361
383021266814	1363
383021266815	1363
383021266816	1362
383021266817	1360
383021266818	1359
383021266819	1357
383021266820	1361
383021266821	1359
383021266822	1358
383021266823	1357
383021266824	1360
383021266825	1362
383021266826	1363
383021266827	1366
383021266828	1368
383021266829	1368
383021266830	1367
383021266831	1365
383021266832	1362
383021266833	1361
383021266834	1361
383021266835	1362
383021266836	1361
383021266837	1364
383021266838	1362
383021266839	1358
383021266840	1360
383021266841	1357
383021266842	1358
383021266843	1358
383021266844	1359
383021266845	1358
383021266846	1358
383021266847	1359
383021266848	1360
383021266849	1361
383021266850	1359
383021266851	1354
383021266852	1354
383021266853	1359
383021266854	1367
383021266855	1389
383021266856	1423
383021266857	1470
383021266858	1515
383021266859	1531
383021266860	1504
383021266861	1422
383021266862	1328
383021266863	1288
383021266864	1270
383021266865	1261
383021266866	1266
383021266867	1280
383021266868	1293
383021266869	1305
383021266870	1322
383021266871	1334
383021266872	1346
383021266873	1350
383021266874	1350
383021266875	1351
383021266876	1352
383021266877	1355
383021266878	1356
383021266879	1358
383021266880	1358
383021266881	1360
383021266882	1360
383021266883	1361
383021266884	1363
383021266885	1365
383021266886	1365
383021266887	1364
383021266888	1367
383021266889	1367
383021266890	1367
383021266891	1366
383021266892	1366
383021266893	1366
383021266894	1366
383021266895	1364
383021266896	1367
383021266897	1367
383021266898	1367
383021266899	1366
383021266900	1370
383021266901	1366
383021266902	1369
383021266903	1368
383021266904	1370
383021266905	1366
383021266906	1368
383021266907	1368
383021266908	1369
383021266909	1372
383021266910	1369
383021266911	1371
383021266912	1372
383021266913	1374
383021266914	1374
383021266915	1376
383021266916	1376
383021266917	1378
383021266918	1380
383021266919	1379
383021266920	1382
383021266921	1383
383021266922	1380
383021266923	1380
383021266924	1380
383021266925	1380
383021266926	1380
383021266927	1377
383021266928	1376
383021266929	1373
383021266930	1373
383021266931	1368
383021266932	1367
383021266933	1362
383021266934	1358
383021266935	1352
383021266936	1349
383021266937	1346
383021266938	1343
383021266939	1342
383021266940	1340
383021266941	1338
383021266942	1338
383021266943	1335
383021266944	1339
383021266945	1333
383021266946	1336
383021266947	1336
383021266948	1336
383021266949	1336
383021266950	1339
383021266951	1340
383021266952	1341
383021266953	1344
383021266954	1345
383021266955	1346
383021266956	1347
383021266957	1349
383021266958	1350
383021266959	1351
383021266960	1353
383021266961	1354
383021266962	1355
383021266963	1359
383021266964	1356
383021266965	1359
383021266966	1359
383021266967	1361
383021266968	1360
383021266969	1359
383021266970	1359
383021266971	1360
383021266972	1361
383021266973	1362
383021266974	1363
383021266975	1363
383021266976	1363
383021266977	1362
383021266978	1366
383021266979	1367
383021266980	1368
383021266981	1370
383021266982	1370
383021266983	1370
383021266984	1370
383021266985	1371
383021266986	1369
383021266987	1369
383021266988	1371
383021266989	1370
383021266990	1368
383021266991	1370
383021266992	1369
383021266993	1371
383021266994	1368
383021266995	1368
383021266996	1370
383021266997	1370
383021266998	1370
383021266999	1371
383021267000	1370
383021267001	1368
383021267002	1368
383021267003	1367
383021267004	1366
383021267005	1365
383021267006	1365
383021267007	1365
383021267008	1363
383021267009	1364
383021267010	1364
383021267011	1366
383021267012	1366
383021267013	1366
383021267014	1367
383021267015	1364
383021267016	1364
383021267017	1365
383021267018	1364
383021267019	1362
383021267020	1364
383021267021	1363
383021267022	1364
383021267023	1365
383021267024	1364
383021267025	1363
383021267026	1362
383021267027	1362
383021267028	1363
383021267029	1362
383021267030	1364
383021267031	1365
383021267032	1364
383021267033	1363
383021267034	1362
383021267035	1363
383021267036	1363
383021267037	1364
383021267038	1364
383021267039	1363
383021267040	1363
383021267041	1364
383021267042	1364
383021267043	1363
383021267044	1361
383021267045	1362
383021267046	1363
383021267047	1363
383021267048	1364
383021267049	1363
383021267050	1365
383021267051	1365
383021267052	1360
383021267053	1361
383021267054	1361
383021267055	1362
383021267056	1362
383021267057	1360
383021267058	1362
383021267059	1362
383021267060	1363
383021267061	1365
383021267062	1363
383021267063	1362
383021267064	1364
383021267065	1364
383021267066	1365
383021267067	1363
383021267068	1362
383021267069	1363
383021267070	1362
383021267071	1363
383021267072	1359
383021267073	1362
383021267074	1360
383021267075	1360
383021267076	1360
383021267077	1361
383021267078	1362
383021267079	1362
383021267080	1362
383021267081	1360
383021267082	1361
383021267083	1361
383021267084	1362
383021267085	1361
383021267086	1364
383021267087	1363
383021267088	1363
383021267089	1362
383021267090	1362
383021267091	1362
383021267092	1364
383021267093	1362
383021267094	1362
383021267095	1362
383021267096	1359
383021267097	1360
383021267098	1360
383021267099	1360
383021267100	1361
383021267101	1364
383021267102	1365
383021267103	1368
383021267104	1365
383021267105	1368
383021267106	1369
383021267107	1367
383021267108	1363
383021267109	1366
383021267110	1365
383021267111	1367
383021267112	1366
383021267113	1365
383021267114	1362
383021267115	1362
383021267116	1360
383021267117	1359
383021267118	1359
383021267119	1360
383021267120	1360
383021267121	1360
383021267122	1359
383021267123	1354
383021267124	1359
383021267125	1358
383021267126	1358
383021267127	1357
383021267128	1354
383021267129	1357
383021267130	1366
383021267131	1385
383021267132	1409
383021267133	1451
383021267134	1501
383021267135	1529
383021267136	1519
383021267137	1457
383021267138	1362
383021267139	1300
383021267140	1279
383021267141	1267
383021267142	1272
383021267143	1280
383021267144	1290
383021267145	1305
383021267146	1318
383021267147	1333
383021267148	1346
383021267149	1353
383021267150	1355
383021267151	1357
383021267152	1357
383021267153	1358
383021267154	1357
383021267155	1359
383021267156	1361
383021267157	1363
383021267158	1367
383021267159	1366
383021267160	1366
383021267161	1364
383021267162	1366
383021267163	1366
383021267164	1366
383021267165	1366
383021267166	1369
383021267167	1367
383021267168	1367
383021267169	1364
383021267170	1368
383021267171	1369
383021267172	1367
383021267173	1369
383021267174	1369
383021267175	1370
383021267176	1370
383021267177	1370
383021267178	1371
383021267179	1372
383021267180	1373
383021267181	1374
383021267182	1374
383021267183	1375
383021267184	1374
383021267185	1376
383021267186	1380
383021267187	1377
383021267188	1378
383021267189	1378
383021267190	1381
383021267191	1378
383021267192	1381
383021267193	1379
383021267194	1379
383021267195	1382
383021267196	1378
383021267197	1383
383021267198	1384
383021267199	1383
383021267200	1383
383021267201	1385
383021267202	1382
383021267203	1380
383021267204	1379
383021267205	1377
383021267206	1375
383021267207	1371
383021267208	1366
383021267209	1363
383021267210	1359
383021267211	1356
383021267212	1353
383021267213	1349
383021267214	1344
383021267215	1343
383021267216	1339
383021267217	1339
383021267218	1339
383021267219	1337
383021267220	1335
383021267221	1335
383021267222	1333
383021267223	1335
383021267224	1335
383021267225	1337
383021267226	1339
383021267227	1338
383021267228	1340
383021267229	1339
383021267230	1342
383021267231	1345
383021267232	1345
383021267233	1346
383021267234	1348
383021267235	1351
383021267236	1352
383021267237	1351
383021267238	1351
383021267239	1354
383021267240	1355
383021267241	1357
383021267242	1356
383021267243	1358
383021267244	1358
383021267245	1357
383021267246	1361
383021267247	1359
383021267248	1359
383021267249	1358
383021267250	1359
383021267251	1360
383021267252	1360
383021267253	1362
383021267254	1363
383021267255	1361
383021267256	1358
383021267257	1364
383021267258	1362
383021267259	1362
383021267260	1365
383021267261	1364
383021267262	1361
383021267263	1362
383021267264	1363
383021267265	1363
383021267266	1363
383021267267	1361
383021267268	1362
383021267269	1363
383021267270	1362
383021267271	1361
383021267272	1362
383021267273	1362
383021267274	1363
383021267275	1364
383021267276	1367
383021267277	1369
383021267278	1366
383021267279	1364
383021267280	1361
383021267281	1360
383021267282	1363
383021267283	1362
383021267284	1363
383021267285	1364
383021267286	1365
383021267287	1363
383021267288	1361
383021267289	1360
383021267290	1364
383021267291	1367
383021267292	1364
383021267293	1361
383021267294	1363
383021267295	1364
383021267296	1366
383021267297	1363
383021267298	1365
383021267299	1364
383021267300	1363
383021267301	1362
383021267302	1361
383021267303	1360
383021267304	1361
383021267305	1365
383021267306	1363
383021267307	1366
383021267308	1369
383021267309	1367
383021267310	1366
383021267311	1367
383021267312	1365
383021267313	1364
383021267314	1365
383021267315	1364
383021267316	1365
383021267317	1365
383021267318	1362
383021267319	1364
383021267320	1362
383021267321	1362
383021267322	1362
383021267323	1361
383021267324	1365
383021267325	1366
383021267326	1365
383021267327	1364
383021267328	1366
383021267329	1363
383021267330	1363
383021267331	1365
383021267332	1362
383021267333	1364
383021267334	1363
383021267335	1361
383021267336	1365
383021267337	1364
383021267338	1363
383021267339	1364
383021267340	1363
383021267341	1362
383021267342	1358
383021267343	1361
383021267344	1359
383021267345	1358
383021267346	1358
383021267347	1362
383021267348	1360
383021267349	1360
383021267350	1362
383021267351	1365
383021267352	1365
383021267353	1364
383021267354	1365
383021267355	1366
383021267356	1362
383021267357	1363
383021267358	1364
383021267359	1363
383021267360	1367
383021267361	1366
383021267362	1365
383021267363	1364
383021267364	1364
383021267365	1363
383021267366	1363
383021267367	1363
383021267368	1366
383021267369	1367
383021267370	1370
383021267371	1372
383021267372	1374
383021267373	1371
383021267374	1368
383021267375	1367
383021267376	1367
383021267377	1368
383021267378	1365
383021267379	1368
383021267380	1365
383021267381	1366
383021267382	1364
383021267383	1363
383021267384	1364
383021267385	1365
383021267386	1363
383021267387	1362
383021267388	1363
383021267389	1363
383021267390	1364
383021267391	1363
383021267392	1362
383021267393	1361
383021267394	1360
383021267395	1362
383021267396	1371
383021267397	1387
383021267398	1405
383021267399	1428
383021267400	1461
383021267401	1493
383021267402	1492
383021267403	1458
383021267404	1383
383021267405	1306
383021267406	1268
383021267407	1258
383021267408	1251
383021267409	1253
383021267410	1271
383021267411	1290
383021267412	1306
383021267413	1323
383021267414	1338
383021267415	1357
383021267416	1369
383021267417	1373
383021267418	1376
383021267419	1378
383021267420	1376
383021267421	1378
383021267422	1381
383021267423	1380
383021267424	1377
383021267425	1378
383021267426	1380
383021267427	1378
383021267428	1382
383021267429	1381
383021267430	1383
383021267431	1380
383021267432	1378
383021267433	1375
383021267434	1377
383021267435	1377
383021267436	1377
383021267437	1374
383021267438	1374
383021267439	1374
383021267440	1373
383021267441	1375
383021267442	1376
383021267443	1376
383021267444	1377
383021267445	1379
383021267446	1374
383021267447	1376
383021267448	1375
383021267449	1377
383021267450	1376
383021267451	1376
383021267452	1377
383021267453	1379
383021267454	1378
383021267455	1380
383021267456	1376
383021267457	1381
383021267458	1382
383021267459	1384
383021267460	1381
383021267461	1384
383021267462	1384
383021267463	1384
383021267464	1384
383021267465	1384
383021267466	1383
383021267467	1385
383021267468	1381
383021267469	1379
383021267470	1375
383021267471	1375
383021267472	1371
383021267473	1367
383021267474	1362
383021267475	1357
383021267476	1355
383021267477	1350
383021267478	1350
383021267479	1344
383021267480	1344
383021267481	1339
383021267482	1339
383021267483	1337
383021267484	1332
383021267485	1334
383021267486	1332
383021267487	1330
383021267488	1331
383021267489	1331
383021267490	1332
383021267491	1333
383021267492	1333
383021267493	1335
383021267494	1337
383021267495	1341
383021267496	1344
383021267497	1343
383021267498	1347
383021267499	1347
383021267500	1350
383021267501	1349
383021267502	1353
383021267503	1354
383021267504	1355
383021267505	1355
383021267506	1357
383021267507	1360
383021267508	1358
383021267509	1359
383021267510	1360
383021267511	1361
383021267512	1361
383021267513	1365
383021267514	1367
383021267515	1368
383021267516	1367
383021267517	1367
383021267518	1366
383021267519	1368
383021267520	1370
383021267521	1370
383021267522	1371
383021267523	1371
383021267524	1372
383021267525	1372
383021267526	1368
383021267527	1369
383021267528	1368
383021267529	1367
383021267530	1366
383021267531	1367
383021267532	1369
383021267533	1366
383021267534	1364
383021267535	1366
383021267536	1366
383021267537	1365
383021267538	1365
383021267539	1364
383021267540	1366
383021267541	1364
383021267542	1364
383021267543	1364
383021267544	1365
383021267545	1365
383021267546	1362
383021267547	1362
383021267548	1364
383021267549	1364
383021267550	1360
383021267551	1358
383021267552	1359
383021267553	1362
383021267554	1362
383021267555	1358
383021267556	1360
383021267557	1362
383021267558	1362
383021267559	1363
383021267560	1363
383021267561	1362
383021267562	1361
383021267563	1358
383021267564	1362
383021267565	1360
383021267566	1359
383021267567	1361
383021267568	1362
383021267569	1362
383021267570	1360
383021267571	1361
383021267572	1360
383021267573	1359
383021267574	1358
383021267575	1358
383021267576	1359
383021267577	1358
383021267578	1359
383021267579	1362
383021267580	1359
383021267581	1360
383021267582	1360
383021267583	1359
383021267584	1361
383021267585	1362
383021267586	1363
383021267587	1361
383021267588	1361
383021267589	1361
383021267590	1361
383021267591	1363
383021267592	1361
383021267593	1361
383021267594	1362
383021267595	1359
383021267596	1358
383021267597	1359
383021267598	1362
383021267599	1359
383021267600	1363
383021267601	1357
383021267602	1357
383021267603	1359
383021267604	1359
383021267605	1361
383021267606	1359
383021267607	1362
383021267608	1364
383021267609	1363
383021267610	1362
383021267611	1361
383021267612	1361
383021267613	1361
383021267614	1361
383021267615	1361
383021267616	1361
383021267617	1363
383021267618	1360
383021267619	1361
383021267620	1359
383021267621	1359
383021267622	1360
383021267623	1359
383021267624	1361
383021267625	1363
383021267626	1362
383021267627	1361
383021267628	1363
383021267629	1364
383021267630	1363
383021267631	1361
383021267632	1360
383021267633	1359
383021267634	1360
383021267635	1362
383021267636	1364
383021267637	1364
383021267638	1366
383021267639	1366
383021267640	1366
383021267641	1364
383021267642	1367
383021267643	1364
383021267644	1362
383021267645	1360
383021267646	1361
383021267647	1359
383021267648	1360
383021267649	1358
383021267650	1359
383021267651	1360
383021267652	1359
383021267653	1359
383021267654	1360
383021267655	1362
383021267656	1360
383021267657	1360
383021267658	1361
383021267659	1359
383021267660	1355
383021267661	1355
383021267662	1362
383021267663	1376
383021267664	1394
383021267665	1424
383021267666	1470
383021267667	1507
383021267668	1514
383021267669	1479
383021267670	1400
383021267671	1311
383021267672	1284
383021267673	1271
383021267674	1268
383021267675	1277
383021267676	1288
383021267677	1302
383021267678	1316
383021267679	1331
383021267680	1347
383021267681	1358
383021267682	1365
383021267683	1367
383021267684	1367
383021267685	1370
383021267686	1368
383021267687	1367
383021267688	1370
383021267689	1367
383021267690	1368
383021267691	1368
383021267692	1368
383021267693	1367
383021267694	1370
383021267695	1370
383021267696	1369
383021267697	1370
383021267698	1370
383021267699	1370
383021267700	1368
383021267701	1369
383021267702	1364
383021267703	1366
383021267704	1367
383021267705	1368
383021267706	1371
383021267707	1370
383021267708	1369
383021267709	1369
383021267710	1370
383021267711	1371
383021267712	1371
383021267713	1372
383021267714	1371
383021267715	1372
383021267716	1371
383021267717	1372
383021267718	1374
383021267719	1371
383021267720	1374
383021267721	1375
383021267722	1376
383021267723	1375
383021267724	1376
383021267725	1376
383021267726	1376
383021267727	1380
383021267728	1381
383021267729	1378
383021267730	1380
383021267731	1380
383021267732	1378
383021267733	1378
383021267734	1382
383021267735	1378
383021267736	1375
383021267737	1374
383021267738	1373
383021267739	1369
383021267740	1367
383021267741	1368
383021267742	1365
383021267743	1360
383021267744	1356
383021267745	1351
383021267746	1348
383021267747	1345
383021267748	1343
383021267749	1342
383021267750	1339
383021267751	1339
383021267752	1338
383021267753	1337
383021267754	1337
383021267755	1336
383021267756	1336
383021267757	1338
383021267758	1339
383021267759	1338
383021267760	1341
383021267761	1341
383021267762	1343
383021267763	1344
383021267764	1342
383021267765	1344
383021267766	1346
383021267767	1350
383021267768	1348
383021267769	1351
383021267770	1351
383021267771	1352
383021267772	1352
383021267773	1356
383021267774	1359
383021267775	1356
383021267776	1357
383021267777	1357
383021267778	1356
383021267779	1358
383021267780	1360
383021267781	1359
383021267782	1359
383021267783	1360
383021267784	1360
383021267785	1359
383021267786	1359
383021267787	1359
383021267788	1360
383021267789	1361
383021267790	1361
383021267791	1360
383021267792	1361
383021267793	1361
383021267794	1359
383021267795	1365
383021267796	1361
383021267797	1359
383021267798	1359
383021267799	1360
383021267800	1360
383021267801	1362
383021267802	1361
383021267803	1363
383021267804	1365
383021267805	1361
383021267806	1360
383021267807	1360
383021267808	1362
383021267809	1360
383021267810	1360
383021267811	1363
383021267812	1362
383021267813	1362
383021267814	1361
383021267815	1362
383021267816	1358
383021267817	1362
383021267818	1361
383021267819	1364
383021267820	1361
383021267821	1361
383021267822	1361
383021267823	1361
383021267824	1361
383021267825	1364
383021267826	1365
383021267827	1365
383021267828	1366
383021267829	1364
383021267830	1364
383021267831	1362
383021267832	1363
383021267833	1364
383021267834	1363
383021267835	1363
383021267836	1361
383021267837	1361
383021267838	1362
383021267839	1364
383021267840	1365
383021267841	1366
383021267842	1366
383021267843	1365
383021267844	1367
383021267845	1364
383021267846	1365
383021267847	1365
383021267848	1364
383021267849	1363
383021267850	1364
383021267851	1366
383021267852	1363
383021267853	1365
383021267854	1365
383021267855	1366
383021267856	1365
383021267857	1366
383021267858	1365
383021267859	1362
383021267860	1364
383021267861	1366
383021267862	1364
383021267863	1366
383021267864	1366
383021267865	1365
383021267866	1365
383021267867	1366
383021267868	1368
383021267869	1365
383021267870	1363
383021267871	1363
383021267872	1364
383021267873	1363
383021267874	1367
383021267875	1370
383021267876	1368
383021267877	1366
383021267878	1363
383021267879	1365
383021267880	1365
383021267881	1366
383021267882	1367
383021267883	1367
383021267884	1368
383021267885	1370
383021267886	1369
383021267887	1367
383021267888	1368
383021267889	1366
383021267890	1367
383021267891	1367
383021267892	1366
383021267893	1365
383021267894	1367
383021267895	1369
383021267896	1366
383021267897	1365
383021267898	1363
383021267899	1364
383021267900	1364
383021267901	1364
383021267902	1365
383021267903	1367
383021267904	1370
383021267905	1372
383021267906	1372
383021267907	1375
383021267908	1374
383021267909	1371
383021267910	1368
383021267911	1367
383021267912	1368
383021267913	1366
383021267914	1365
383021267915	1366
383021267916	1365
383021267917	1365
383021267918	1367
383021267919	1366
383021267920	1367
383021267921	1368
383021267922	1365
383021267923	1364
383021267924	1362
383021267925	1367
383021267926	1370
383021267927	1379
383021267928	1396
383021267929	1421
383021267930	1457
383021267931	1497
383021267932	1506
383021267933	1482
383021267934	1414
383021267935	1325
383021267936	1286
383021267937	1265
383021267938	1257
383021267939	1262
383021267940	1280
383021267941	1298
383021267942	1314
383021267943	1326
383021267944	1338
383021267945	1355
383021267946	1365
383021267947	1369
383021267948	1372
383021267949	1374
383021267950	1371
383021267951	1373
383021267952	1372
383021267953	1372
383021267954	1373
383021267955	1373
383021267956	1374
383021267957	1376
383021267958	1375
383021267959	1372
383021267960	1372
383021267961	1373
383021267962	1371
383021267963	1373
383021267964	1373
383021267965	1373
383021267966	1373
383021267967	1373
383021267968	1371
383021267969	1371
383021267970	1372
383021267971	1372
383021267972	1372
383021267973	1371
383021267974	1371
383021267975	1370
383021267976	1373
383021267977	1374
383021267978	1376
383021267979	1374
383021267980	1373
383021267981	1372
383021267982	1374
383021267983	1376
383021267984	1375
383021267985	1375
383021267986	1374
383021267987	1376
383021267988	1378
383021267989	1378
383021267990	1380
383021267991	1380
383021267992	1383
383021267993	1381
383021267994	1380
383021267995	1381
383021267996	1384
383021267997	1381
383021267998	1383
383021267999	1380
383021268000	1379
383021268001	1378
383021268002	1377
383021268003	1373
383021268004	1368
383021268005	1366
383021268006	1360
383021268007	1357
383021268008	1354
383021268009	1351
383021268010	1346
383021268011	1344
383021268012	1346
383021268013	1338
383021268014	1336
383021268015	1336
383021268016	1336
383021268017	1335
383021268018	1336
383021268019	1336
383021268020	1337
383021268021	1336
383021268022	1339
383021268023	1339
383021268024	1338
383021268025	1342
383021268026	1345
383021268027	1344
383021268028	1345
383021268029	1347
383021268030	1351
383021268031	1351
383021268032	1351
383021268033	1354
383021268034	1357
383021268035	1354
383021268036	1354
383021268037	1354
383021268038	1354
383021268039	1355
383021268040	1356
383021268041	1358
383021268042	1358
383021268043	1359
383021268044	1360
383021268045	1359
383021268046	1359
383021268047	1359
383021268048	1360
383021268049	1361
383021268050	1361
383021268051	1362
383021268052	1361
383021268053	1360
383021268054	1361
383021268055	1362
383021268056	1365
383021268057	1363
383021268058	1361
383021268059	1360
383021268060	1361
383021268061	1361
383021268062	1363
383021268063	1362
383021268064	1362
383021268065	1361
383021268066	1362
383021268067	1364
383021268068	1361
383021268069	1362
383021268070	1361
383021268071	1361
383021268072	1360
383021268073	1364
383021268074	1360
383021268075	1363
383021268076	1364
383021268077	1362
383021268078	1361
383021268079	1362
383021268080	1364
383021268081	1364
383021268082	1364
383021268083	1365
383021268084	1364
383021268085	1364
383021268086	1364
383021268087	1364
383021268088	1365
383021268089	1363
383021268090	1363
383021268091	1361
383021268092	1365
383021268093	1363
383021268094	1363
383021268095	1363
383021268096	1362
383021268097	1365
383021268098	1363
383021268099	1363
383021268100	1364
383021268101	1365
383021268102	1366
383021268103	1364
383021268104	1363
383021268105	1362
383021268106	1364
383021268107	1364
383021268108	1364
383021268109	1364
383021268110	1365
383021268111	1367
383021268112	1365
383021268113	1364
383021268114	1361
383021268115	1361
383021268116	1363
383021268117	1364
383021268118	1367
383021268119	1365
383021268120	1365
383021268121	1365
383021268122	1367
383021268123	1362
383021268124	1363
383021268125	1363
383021268126	1364
383021268127	1363
383021268128	1363
383021268129	1364
383021268130	1364
383021268131	1362
383021268132	1365
383021268133	1364
383021268134	1366
383021268135	1364
383021268136	1365
383021268137	1363
383021268138	1363
383021268139	1364
383021268140	1364
383021268141	1365
383021268142	1362
383021268143	1364
383021268144	1364
383021268145	1364
383021268146	1362
383021268147	1363
383021268148	1364
383021268149	1368
383021268150	1365
383021268151	1366
383021268152	1365
383021268153	1364
383021268154	1364
383021268155	1361
383021268156	1363
383021268157	1361
383021268158	1364
383021268159	1364
383021268160	1367
383021268161	1362
383021268162	1364
383021268163	1363
383021268164	1363
383021268165	1362
383021268166	1362
383021268167	1362
383021268168	1362
383021268169	1364
383021268170	1364
383021268171	1364
383021268172	1363
383021268173	1363
383021268174	1360
383021268175	1362
383021268176	1361
383021268177	1360
383021268178	1360
383021268179	1362
383021268180	1364
383021268181	1364
383021268182	1367
383021268183	1370
383021268184	1374
383021268185	1371
383021268186	1372
383021268187	1369
383021268188	1366
383021268189	1365
383021268190	1367
383021268191	1366
383021268192	1363
383021268193	1364
383021268194	1363
383021268195	1362
383021268196	1361
383021268197	1361
383021268198	1361
383021268199	1363
383021268200	1360
383021268201	1358
383021268202	1362
383021268203	1363
383021268204	1362
383021268205	1362
383021268206	1360
383021268207	1358
383021268208	1360
383021268209	1367
383021268210	1386
383021268211	1411
383021268212	1453
383021268213	1503
383021268214	1529
383021268215	1516
383021268216	1448
383021268217	1360
383021268218	1308
383021268219	1288
383021268220	1281
383021268221	1287
383021268222	1291
383021268223	1299
383021268224	1312
383021268225	1325
383021268226	1337
383021268227	1346
383021268228	1350
383021268229	1355
383021268230	1352
383021268231	1356
383021268232	1358
383021268233	1359
383021268234	1360
383021268235	1363
383021268236	1361
383021268237	1362
383021268238	1362
383021268239	1363
383021268240	1362
383021268241	1363
383021268242	1364
383021268243	1365
383021268244	1363
383021268245	1364
383021268246	1368
383021268247	1362
383021268248	1365
383021268249	1363
383021268250	1366
383021268251	1366
383021268252	1368
383021268253	1368
383021268254	1368
383021268255	1368
383021268256	1367
383021268257	1366
383021268258	1366
383021268259	1368
383021268260	1367
383021268261	1371
383021268262	1372
383021268263	1370
383021268264	1371
383021268265	1371
383021268266	1369
383021268267	1373
383021268268	1376
383021268269	1375
383021268270	1375
383021268271	1378
383021268272	1377
383021268273	1374
383021268274	1376
383021268275	1381
383021268276	1379
383021268277	1378
383021268278	1377
383021268279	1378
383021268280	1379
383021268281	1379
383021268282	1376
383021268283	1374
383021268284	1376
383021268285	1372
383021268286	1370
383021268287	1371
383021268288	1364
383021268289	1361
383021268290	1358
383021268291	1355
383021268292	1351
383021268293	1349
383021268294	1344
383021268295	1342
383021268296	1341
383021268297	1340
383021268298	1337
383021268299	1337
383021268300	1339
383021268301	1337
383021268302	1339
383021268303	1339
383021268304	1340
383021268305	1339
383021268306	1343
383021268307	1343
383021268308	1344
383021268309	1344
383021268310	1348
383021268311	1345
383021268312	1347
383021268313	1350
383021268314	1350
383021268315	1349
383021268316	1349
383021268317	1352
383021268318	1354
383021268319	1355
383021268320	1358
383021268321	1356
383021268322	1356
383021268323	1357
383021268324	1359
383021268325	1358
383021268326	1358
383021268327	1359
383021268328	1359
383021268329	1359
383021268330	1360
383021268331	1360
383021268332	1360
383021268333	1360
383021268334	1361
383021268335	1360
383021268336	1362
383021268337	1360
383021268338	1360
383021268339	1358
383021268340	1361
383021268341	1358
383021268342	1361
383021268343	1362
383021268344	1360
383021268345	1361
383021268346	1361
383021268347	1361
383021268348	1364
383021268349	1361
383021268350	1361
383021268351	1364
383021268352	1362
383021268353	1363
383021268354	1363
383021268355	1362
383021268356	1361
383021268357	1361
383021268358	1359
383021268359	1361
383021268360	1359
383021268361	1362
383021268362	1363
383021268363	1363
383021268364	1361
383021268365	1359
383021268366	1361
383021268367	1362
383021268368	1363
383021268369	1363
383021268370	1362
383021268371	1363
383021268372	1365
383021268373	1364
383021268374	1363
383021268375	1362
383021268376	1363
383021268377	1362
383021268378	1364
383021268379	1362
383021268380	1363
383021268381	1363
383021268382	1364
383021268383	1363
383021268384	1363
383021268385	1363
383021268386	1363
383021268387	1362
383021268388	1362
383021268389	1359
383021268390	1362
383021268391	1363
383021268392	1364
383021268393	1362
383021268394	1365
383021268395	1363
383021268396	1364
383021268397	1364
383021268398	1364
383021268399	1364
383021268400	1361
383021268401	1362
383021268402	1362
383021268403	1363
383021268404	1366
383021268405	1365
383021268406	1365
383021268407	1364
383021268408	1364
383021268409	1364
383021268410	1365
383021268411	1364
383021268412	1362
383021268413	1363
383021268414	1362
383021268415	1363
383021268416	1364
383021268417	1366
383021268418	1363
383021268419	1364
383021268420	1365
383021268421	1366
383021268422	1366
383021268423	1365
383021268424	1363
383021268425	1366
383021268426	1363
383021268427	1360
383021268428	1362
383021268429	1363
383021268430	1364
383021268431	1364
383021268432	1366
383021268433	1366
383021268434	1365
383021268435	1366
383021268436	1367
383021268437	1365
383021268438	1367
383021268439	1369
383021268440	1368
383021268441	1368
383021268442	1364
383021268443	1365
383021268444	1365
383021268445	1366
383021268446	1365
383021268447	1365
383021268448	1365
383021268449	1363
383021268450	1367
383021268451	1367
383021268452	1367
383021268453	1368
383021268454	1371
383021268455	1374
383021268456	1373
383021268457	1372
383021268458	1370
383021268459	1369
383021268460	1366
383021268461	1367
383021268462	1367
383021268463	1366
383021268464	1363
383021268465	1363
383021268466	1364
383021268467	1362
383021268468	1361
383021268469	1362
383021268470	1362
383021268471	1361
383021268472	1362
383021268473	1363
383021268474	1365
383021268475	1365
383021268476	1366
383021268477	1364
383021268478	1362
383021268479	1368
383021268480	1375
383021268481	1392
383021268482	1413
383021268483	1443
383021268484	1486
383021268485	1500
383021268486	1488
383021268487	1432
383021268488	1349
383021268489	1289
383021268490	1268
383021268491	1255
383021268492	1251
383021268493	1267
383021268494	1287
383021268495	1309
383021268496	1326
383021268497	1341
383021268498	1356
383021268499	1364
383021268500	1374
383021268501	1374
383021268502	1378
383021268503	1379
383021268504	1378
383021268505	1378
383021268506	1379
383021268507	1380
383021268508	1379
383021268509	1376
383021268510	1378
383021268511	1380
383021268512	1380
383021268513	1379
383021268514	1378
383021268515	1379
383021268516	1379
383021268517	1379
383021268518	1377
383021268519	1376
383021268520	1376
383021268521	1377
383021268522	1376
383021268523	1376
383021268524	1376
383021268525	1374
383021268526	1376
383021268527	1375
383021268528	1376
383021268529	1376
383021268530	1378
383021268531	1375
383021268532	1376
383021268533	1377
383021268534	1374
383021268535	1378
383021268536	1378
383021268537	1379
383021268538	1377
383021268539	1381
383021268540	1380
383021268541	1382
383021268542	1382
383021268543	1382
383021268544	1383
383021268545	1388
383021268546	1386
383021268547	1384
383021268548	1382
383021268549	1384
383021268550	1383
383021268551	1381
383021268552	1379
383021268553	1380
383021268554	1376
383021268555	1374
383021268556	1370
383021268557	1366
383021268558	1363
383021268559	1361
383021268560	1358
383021268561	1354
383021268562	1350
383021268563	1348
383021268564	1346
383021268565	1343
383021268566	1339
383021268567	1337
383021268568	1336
383021268569	1336
383021268570	1334
383021268571	1335
383021268572	1337
383021268573	1335
383021268574	1336
383021268575	1339
383021268576	1338
383021268577	1340
383021268578	1342
383021268579	1343
383021268580	1342
383021268581	1340
383021268582	1345
383021268583	1345
383021268584	1348
383021268585	1350
383021268586	1348
383021268587	1348
383021268588	1351
383021268589	1356
383021268590	1352
383021268591	1349
383021268592	1352
383021268593	1352
383021268594	1355
383021268595	1356
383021268596	1356
383021268597	1355
383021268598	1356
383021268599	1357
383021268600	1356
383021268601	1357
383021268602	1357
383021268603	1357
383021268604	1357
383021268605	1355
383021268606	1357
383021268607	1357
383021268608	1358
383021268609	1360
383021268610	1360
383021268611	1363
383021268612	1358
383021268613	1358
383021268614	1357
383021268615	1358
383021268616	1358
383021268617	1359
383021268618	1358
383021268619	1361
383021268620	1361
383021268621	1361
383021268622	1361
383021268623	1360
383021268624	1358
383021268625	1359
383021268626	1359
383021268627	1358
383021268628	1357
383021268629	1359
383021268630	1359
383021268631	1357
383021268632	1363
383021268633	1362
383021268634	1360
383021268635	1361
383021268636	1361
383021268637	1362
383021268638	1363
383021268639	1363
383021268640	1361
383021268641	1361
383021268642	1361
383021268643	1361
383021268644	1360
383021268645	1359
383021268646	1360
383021268647	1356
383021268648	1359
383021268649	1358
383021268650	1359
383021268651	1360
383021268652	1362
383021268653	1361
383021268654	1361
383021268655	1361
383021268656	1360
383021268657	1360
383021268658	1362
383021268659	1366
383021268660	1361
383021268661	1362
383021268662	1360
383021268663	1361
383021268664	1361
383021268665	1362
383021268666	1362
383021268667	1364
383021268668	1361
383021268669	1362
383021268670	1358
383021268671	1360
383021268672	1361
383021268673	1361
383021268674	1362
383021268675	1362
383021268676	1363
383021268677	1364
383021268678	1361
383021268679	1358
383021268680	1360
383021268681	1362
383021268682	1362
383021268683	1362
383021268684	1363
383021268685	1367
383021268686	1363
383021268687	1361
383021268688	1362
383021268689	1362
383021268690	1363
383021268691	1364
383021268692	1362
383021268693	1363
383021268694	1362
383021268695	1362
383021268696	1366
383021268697	1362
383021268698	1363
383021268699	1362
383021268700	1363
383021268701	1362
383021268702	1361
383021268703	1359
383021268704	1361
383021268705	1361
383021268706	1362
383021268707	1362
383021268708	1360
383021268709	1361
383021268710	1361
383021268711	1361
383021268712	1361
383021268713	1363
383021268714	1360
383021268715	1363
383021268716	1360
383021268717	1361
383021268718	1363
383021268719	1362
383021268720	1363
383021268721	1363
383021268722	1361
383021268723	1360
383021268724	1364
383021268725	1364
383021268726	1365
383021268727	1367
383021268728	1365
383021268729	1369
383021268730	1369
383021268731	1369
383021268732	1366
383021268733	1367
383021268734	1367
383021268735	1367
383021268736	1366
383021268737	1366
383021268738	1366
383021268739	1369
383021268740	1364
383021268741	1362
383021268742	1365
383021268743	1362
383021268744	1367
383021268745	1361
383021268746	1363
383021268747	1364
383021268748	1364
383021268749	1364
383021268750	1363
383021268751	1362
383021268752	1358
383021268753	1362
383021268754	1366
383021268755	1380
383021268756	1398
383021268757	1424
383021268758	1466
383021268759	1500
383021268760	1502
383021268761	1470
383021268762	1392
383021268763	1306
383021268764	1273
383021268765	1257
383021268766	1256
383021268767	1263
383021268768	1277
383021268769	1295
383021268770	1311
383021268771	1324
383021268772	1337
383021268773	1350
383021268774	1359
383021268775	1361
383021268776	1363
383021268777	1364
383021268778	1364
383021268779	1366
383021268780	1366
383021268781	1365
383021268782	1367
383021268783	1367
383021268784	1367
383021268785	1368
383021268786	1369
383021268787	1372
383021268788	1369
383021268789	1366
383021268790	1368
383021268791	1368
383021268792	1369
383021268793	1368
383021268794	1368
383021268795	1370
383021268796	1371
383021268797	1370
383021268798	1369
383021268799	1370
383021268800	1373
383021268801	1368
383021268802	1367
383021268803	1369
383021268804	1370
383021268805	1372
383021268806	1373
383021268807	1373
383021268808	1376
383021268809	1374
383021268810	1373
383021268811	1374
383021268812	1374
383021268813	1374
383021268814	1377
383021268815	1377
383021268816	1377
383021268817	1379
383021268818	1380
383021268819	1381
383021268820	1380
383021268821	1381
383021268822	1381
383021268823	1385
383021268824	1384
383021268825	1381
383021268826	1382
383021268827	1380
383021268828	1378
383021268829	1376
383021268830	1375
383021268831	1374
383021268832	1372
383021268833	1368
383021268834	1363
383021268835	1359
383021268836	1354
383021268837	1352
383021268838	1349
383021268839	1345
383021268840	1342
383021268841	1341
383021268842	1338
383021268843	1337
383021268844	1335
383021268845	1336
383021268846	1332
383021268847	1335
383021268848	1335
383021268849	1336
383021268850	1339
383021268851	1341
383021268852	1339
383021268853	1342
383021268854	1345
383021268855	1346
383021268856	1349
383021268857	1349
383021268858	1350
383021268859	1353
383021268860	1354
383021268861	1353
383021268862	1354
383021268863	1355
383021268864	1354
383021268865	1361
383021268866	1359
383021268867	1361
383021268868	1362
383021268869	1363
383021268870	1362
383021268871	1363
383021268872	1363
383021268873	1361
383021268874	1362
383021268875	1364
383021268876	1365
383021268877	1363
383021268878	1365
383021268879	1367
383021268880	1367
383021268881	1365
383021268882	1364
383021268883	1365
383021268884	1366
383021268885	1365
383021268886	1365
383021268887	1363
383021268888	1365
383021268889	1364
383021268890	1365
383021268891	1364
383021268892	1363
383021268893	1363
383021268894	1363
383021268895	1365
383021268896	1365
383021268897	1363
383021268898	1363
383021268899	1363
383021268900	1363
383021268901	1364
383021268902	1363
383021268903	1363
383021268904	1364
383021268905	1363
383021268906	1363
383021268907	1361
383021268908	1361
383021268909	1363
383021268910	1365
383021268911	1365
383021268912	1367
383021268913	1367
383021268914	1363
383021268915	1362
383021268916	1363
383021268917	1362
383021268918	1364
383021268919	1362
383021268920	1363
383021268921	1363
383021268922	1363
383021268923	1364
383021268924	1366
383021268925	1364
383021268926	1366
383021268927	1362
383021268928	1363
383021268929	1364
383021268930	1364
383021268931	1365
383021268932	1363
383021268933	1363
383021268934	1362
383021268935	1361
383021268936	1362
383021268937	1365
383021268938	1362
383021268939	1363
383021268940	1363
383021268941	1364
383021268942	1365
383021268943	1363
383021268944	1365
383021268945	1364
383021268946	1365
383021268947	1364
383021268948	1362
383021268949	1361
383021268950	1365
383021268951	1364
383021268952	1365
383021268953	1366
383021268954	1366
383021268955	1365
383021268956	1364
383021268957	1365
383021268958	1363
383021268959	1362
383021268960	1361
383021268961	1359
383021268962	1361
383021268963	1360
383021268964	1360
383021268965	1360
383021268966	1359
383021268967	1361
383021268968	1360
383021268969	1356
383021268970	1356
383021268971	1358
383021268972	1361
383021268973	1359
383021268974	1359
383021268975	1359
383021268976	1360
383021268977	1356
383021268978	1358
383021268979	1357
383021268980	1359
383021268981	1358
383021268982	1358
383021268983	1357
383021268984	1357
383021268985	1358
383021268986	1358
383021268987	1359
383021268988	1359
383021268989	1359
383021268990	1361
383021268991	1362
383021268992	1361
383021268993	1360
383021268994	1359
383021268995	1360
383021268996	1361
383021268997	1362
383021268998	1361
383021268999	1358
383021269000	1362
383021269001	1363
383021269002	1365
383021269003	1367
383021269004	1367
383021269005	1368
383021269006	1369
383021269007	1367
383021269008	1366
383021269009	1365
383021269010	1364
383021269011	1364
383021269012	1364
383021269013	1364
383021269014	1362
383021269015	1360
383021269016	1359
383021269017	1359
383021269018	1362
383021269019	1361
383021269020	1359
383021269021	1360
383021269022	1360
383021269023	1359
383021269024	1361
383021269025	1359
383021269026	1357
383021269027	1356
383021269028	1363
383021269029	1370
383021269030	1383
383021269031	1404
383021269032	1432
383021269033	1472
383021269034	1503
383021269035	1499
383021269036	1450
383021269037	1369
383021269038	1293
383021269039	1267
383021269040	1255
383021269041	1251
383021269042	1262
383021269043	1281
383021269044	1297
383021269045	1315
383021269046	1330
383021269047	1345
383021269048	1361
383021269049	1362
383021269050	1370
383021269051	1372
383021269052	1372
383021269053	1372
383021269054	1371
383021269055	1373
383021269056	1375
383021269057	1376
383021269058	1376
383021269059	1377
383021269060	1375
383021269061	1376
383021269062	1374
383021269063	1376
383021269064	1377
383021269065	1376
383021269066	1374
383021269067	1374
383021269068	1374
383021269069	1374
383021269070	1377
383021269071	1377
383021269072	1378
383021269073	1374
383021269074	1377
383021269075	1377
383021269076	1379
383021269077	1380
383021269078	1379
383021269079	1378
383021269080	1378
383021269081	1379
383021269082	1379
383021269083	1381
383021269084	1378
383021269085	1378
383021269086	1379
383021269087	1378
383021269088	1382
383021269089	1384
383021269090	1384
383021269091	1383
383021269092	1385
383021269093	1386
383021269094	1386
383021269095	1387
383021269096	1388
383021269097	1386
383021269098	1386
383021269099	1384
383021269100	1383
383021269101	1379
383021269102	1378
383021269103	1375
383021269104	1375
383021269105	1372
383021269106	1372
383021269107	1367
383021269108	1366
383021269109	1362
383021269110	1355
383021269111	1353
383021269112	1350
383021269113	1347
383021269114	1340
383021269115	1338
383021269116	1339
383021269117	1340
383021269118	1339
383021269119	1335
383021269120	1334
383021269121	1334
383021269122	1333
383021269123	1337
383021269124	1336
383021269125	1337
383021269126	1337
383021269127	1337
383021269128	1340
383021269129	1342
383021269130	1342
383021269131	1344
383021269132	1346
383021269133	1346
383021269134	1347
383021269135	1349
383021269136	1349
383021269137	1347
383021269138	1349
383021269139	1350
383021269140	1351
383021269141	1354
383021269142	1353
383021269143	1353
383021269144	1352
383021269145	1354
383021269146	1357
383021269147	1358
383021269148	1358
383021269149	1358
383021269150	1357
383021269151	1359
383021269152	1358
383021269153	1358
383021269154	1359
383021269155	1357
383021269156	1359
383021269157	1362
383021269158	1361
383021269159	1362
383021269160	1361
383021269161	1362
383021269162	1361
383021269163	1362
383021269164	1365
383021269165	1362
383021269166	1362
383021269167	1361
383021269168	1362
383021269169	1362
383021269170	1361
383021269171	1365
383021269172	1365
383021269173	1363
383021269174	1364
383021269175	1363
383021269176	1363
383021269177	1361
383021269178	1364
383021269179	1364
383021269180	1366
383021269181	1365
383021269182	1362
383021269183	1363
383021269184	1367
383021269185	1365
383021269186	1365
383021269187	1365
383021269188	1363
383021269189	1364
383021269190	1365
383021269191	1366
383021269192	1367
383021269193	1368
383021269194	1364
383021269195	1366
383021269196	1364
383021269197	1362
383021269198	1360
383021269199	1361
383021269200	1363
383021269201	1364
383021269202	1364
383021269203	1364
383021269204	1369
383021269205	1366
383021269206	1365
383021269207	1364
383021269208	1363
383021269209	1362
383021269210	1361
383021269211	1362
383021269212	1363
383021269213	1362
383021269214	1363
383021269215	1364
383021269216	1364
383021269217	1364
383021269218	1363
383021269219	1358
383021269220	1360
383021269221	1360
383021269222	1366
383021269223	1364
383021269224	1366
383021269225	1366
383021269226	1367
383021269227	1366
383021269228	1365
383021269229	1364
383021269230	1365
383021269231	1366
383021269232	1368
383021269233	1367
383021269234	1366
383021269235	1366
383021269236	1366
383021269237	1366
383021269238	1365
383021269239	1368
383021269240	1368
383021269241	1366
383021269242	1367
383021269243	1368
383021269244	1367
383021269245	1369
383021269246	1371
383021269247	1366
383021269248	1365
383021269249	1360
383021269250	1365
383021269251	1367
383021269252	1369
383021269253	1370
383021269254	1364
383021269255	1366
383021269256	1368
383021269257	1365
383021269258	1364
383021269259	1364
383021269260	1364
383021269261	1365
383021269262	1364
383021269263	1364
383021269264	1363
383021269265	1362
383021269266	1363
383021269267	1363
383021269268	1363
383021269269	1363
383021269270	1363
383021269271	1362
383021269272	1361
383021269273	1360
383021269274	1362
383021269275	1363
383021269276	1366
383021269277	1368
383021269278	1373
383021269279	1373
383021269280	1370
383021269281	1368
383021269282	1366
383021269283	1364
383021269284	1364
383021269285	1365
383021269286	1364
383021269287	1361
383021269288	1363
383021269289	1363
383021269290	1362
383021269291	1362
383021269292	1362
383021269293	1361
383021269294	1362
383021269295	1361
383021269296	1361
383021269297	1361
383021269298	1361
383021269299	1361
383021269300	1359
383021269301	1359
383021269302	1356
383021269303	1358
383021269304	1367
383021269305	1383
383021269306	1404
383021269307	1441
383021269308	1490
383021269309	1516
383021269310	1509
383021269311	1451
383021269312	1364
383021269313	1303
383021269314	1281
383021269315	1269
383021269316	1267
383021269317	1279
383021269318	1292
383021269319	1305
383021269320	1320
383021269321	1336
383021269322	1350
383021269323	1358
383021269324	1360
383021269325	1362
383021269326	1361
383021269327	1363
383021269328	1364
383021269329	1366
383021269330	1365
383021269331	1368
383021269332	1367
383021269333	1368
383021269334	1371
383021269335	1371
383021269336	1366
383021269337	1368
383021269338	1368
383021269339	1370
383021269340	1370
383021269341	1368
383021269342	1369
383021269343	1370
383021269344	1370
383021269345	1370
383021269346	1372
383021269347	1368
383021269348	1370
383021269349	1368
383021269350	1371
383021269351	1371
383021269352	1370
383021269353	1370
383021269354	1369
383021269355	1372
383021269356	1370
383021269357	1371
383021269358	1369
383021269359	1369
383021269360	1369
383021269361	1370
383021269362	1374
383021269363	1375
383021269364	1378
383021269365	1380
383021269366	1384
383021269367	1384
383021269368	1381
383021269369	1382
383021269370	1383
383021269371	1383
383021269372	1382
383021269373	1381
383021269374	1382
383021269375	1384
383021269376	1382
383021269377	1380
383021269378	1379
383021269379	1378
383021269380	1376
383021269381	1374
383021269382	1371
383021269383	1366
383021269384	1364
383021269385	1359
383021269386	1355
383021269387	1350
383021269388	1350
383021269389	1347
383021269390	1343
383021269391	1341
383021269392	1337
383021269393	1336
383021269394	1336
383021269395	1333
383021269396	1336
383021269397	1336
383021269398	1338
383021269399	1339
383021269400	1340
383021269401	1340
383021269402	1341
383021269403	1345
383021269404	1343
383021269405	1343
383021269406	1345
383021269407	1346
383021269408	1348
383021269409	1349
383021269410	1349
383021269411	1353
383021269412	1352
383021269413	1353
383021269414	1353
383021269415	1354
383021269416	1358
383021269417	1360
383021269418	1358
383021269419	1359
383021269420	1357
383021269421	1359
383021269422	1361
383021269423	1361
383021269424	1360
383021269425	1358
383021269426	1358
383021269427	1357
383021269428	1359
383021269429	1363
383021269430	1361
383021269431	1365
383021269432	1360
383021269433	1360
383021269434	1362
383021269435	1364
383021269436	1363
383021269437	1360
383021269438	1359
383021269439	1358
383021269440	1356
383021269441	1357
383021269442	1357
383021269443	1359
383021269444	1359
383021269445	1357
383021269446	1357
383021269447	1358
383021269448	1357
383021269449	1354
383021269450	1354
383021269451	1357
383021269452	1357
383021269453	1357
383021269454	1358
383021269455	1356
383021269456	1358
383021269457	1355
383021269458	1359
383021269459	1357
383021269460	1358
383021269461	1357
383021269462	1355
383021269463	1358
383021269464	1357
383021269465	1362
383021269466	1360
383021269467	1359
383021269468	1361
383021269469	1360
383021269470	1360
383021269471	1356
383021269472	1357
383021269473	1358
383021269474	1357
383021269475	1359
383021269476	1357
383021269477	1356
383021269478	1353
383021269479	1355
383021269480	1357
383021269481	1356
383021269482	1361
383021269483	1361
383021269484	1358
383021269485	1359
383021269486	1355
383021269487	1359
383021269488	1359
383021269489	1357
383021269490	1359
383021269491	1360
383021269492	1359
383021269493	1360
383021269494	1363
383021269495	1364
383021269496	1365
383021269497	1365
383021269498	1362
383021269499	1360
383021269500	1360
383021269501	1360
383021269502	1362
383021269503	1363
383021269504	1363
383021269505	1363
383021269506	1363
383021269507	1363
383021269508	1365
383021269509	1363
383021269510	1363
383021269511	1361
383021269512	1365
383021269513	1365
383021269514	1363
383021269515	1365
383021269516	1365
383021269517	1364
383021269518	1363
383021269519	1362
383021269520	1363
383021269521	1365
383021269522	1365
383021269523	1368
383021269524	1367
383021269525	1365
383021269526	1365
383021269527	1364
383021269528	1366
383021269529	1364
383021269530	1366
383021269531	1366
383021269532	1365
383021269533	1364
383021269534	1364
383021269535	1364
383021269536	1362
383021269537	1362
383021269538	1359
383021269539	1357
383021269540	1360
383021269541	1362
383021269542	1364
383021269543	1365
383021269544	1367
383021269545	1367
383021269546	1365
383021269547	1364
383021269548	1365
383021269549	1365
383021269550	1362
383021269551	1363
383021269552	1366
383021269553	1364
383021269554	1364
383021269555	1365
383021269556	1364
383021269557	1369
383021269558	1372
383021269559	1368
383021269560	1367
383021269561	1367
383021269562	1362
383021269563	1360
383021269564	1355
383021269565	1359
383021269566	1356
383021269567	1355
383021269568	1355
383021269569	1356
383021269570	1356
383021269571	1355
383021269572	1357
383021269573	1357
383021269574	1357
383021269575	1357
383021269576	1358
383021269577	1355
383021269578	1358
383021269579	1355
383021269580	1357
383021269581	1358
383021269582	1368
383021269583	1381
383021269584	1398
383021269585	1425
383021269586	1460
383021269587	1487
383021269588	1482
383021269589	1438
383021269590	1353
383021269591	1279
383021269592	1263
383021269593	1255
383021269594	1255
383021269595	1270
383021269596	1287
383021269597	1304
383021269598	1320
383021269599	1333
383021269600	1350
383021269601	1360
383021269602	1364
383021269603	1365
383021269604	1365
383021269605	1368
383021269606	1366
383021269607	1365
383021269608	1365
383021269609	1368
383021269610	1365
383021269611	1369
383021269612	1367
383021269613	1369
383021269614	1368
383021269615	1366
383021269616	1366
383021269617	1369
383021269618	1367
383021269619	1366
383021269620	1367
383021269621	1369
383021269622	1369
383021269623	1368
383021269624	1368
383021269625	1368
383021269626	1368
383021269627	1368
383021269628	1367
383021269629	1370
383021269630	1370
383021269631	1375
383021269632	1375
383021269633	1376
383021269634	1375
383021269635	1374
383021269636	1375
383021269637	1373
383021269638	1373
383021269639	1373
383021269640	1375
383021269641	1374
383021269642	1377
383021269643	1377
383021269644	1374
383021269645	1375
383021269646	1375
383021269647	1376
383021269648	1378
383021269649	1376
383021269650	1377
383021269651	1377
383021269652	1377
383021269653	1375
383021269654	1372
383021269655	1376
383021269656	1378
383021269657	1376
383021269658	1376
383021269659	1370
383021269660	1362
383021269661	1357
383021269662	1354
383021269663	1355
383021269664	1352
383021269665	1353
383021269666	1348
383021269667	1345
383021269668	1345
383021269669	1343
383021269670	1342
383021269671	1341
383021269672	1341
383021269673	1342
383021269674	1339
383021269675	1339
383021269676	1336
383021269677	1339
383021269678	1343
383021269679	1346
383021269680	1350
383021269681	1349
383021269682	1350
383021269683	1350
383021269684	1352
383021269685	1352
383021269686	1353
383021269687	1357
383021269688	1357
383021269689	1359
383021269690	1359
383021269691	1357
383021269692	1361
383021269693	1363
383021269694	1362
383021269695	1359
383021269696	1360
383021269697	1359
383021269698	1363
383021269699	1362
383021269700	1365
383021269701	1365
383021269702	1367
383021269703	1369
383021269704	1364
383021269705	1365
383021269706	1367
383021269707	1367
383021269708	1368
383021269709	1370
383021269710	1370
383021269711	1373
383021269712	1375
383021269713	1375
383021269714	1369
383021269715	1372
383021269716	1368
383021269717	1370
383021269718	1371
383021269719	1370
383021269720	1367
383021269721	1372
383021269722	1372
383021269723	1372
383021269724	1370
383021269725	1369
383021269726	1372
383021269727	1372
383021269728	1375
383021269729	1375
383021269730	1369
383021269731	1369
383021269732	1373
383021269733	1374
383021269734	1375
383021269735	1374
383021269736	1373
383021269737	1371
383021269738	1373
383021269739	1374
383021269740	1372
383021269741	1373
383021269742	1373
383021269743	1374
383021269744	1374
383021269745	1374
383021269746	1375
383021269747	1374
383021269748	1374
383021269749	1374
383021269750	1374
383021269751	1375
383021269752	1377
383021269753	1376
383021269754	1373
383021269755	1372
383021269756	1372
383021269757	1372
383021269758	1373
383021269759	1374
383021269760	1370
383021269761	1372
383021269762	1372
383021269763	1373
383021269764	1375
383021269765	1372
383021269766	1370
383021269767	1373
383021269768	1373
383021269769	1371
383021269770	1372
383021269771	1371
383021269772	1373
383021269773	1370
383021269774	1373
383021269775	1372
383021269776	1372
383021269777	1371
383021269778	1370
383021269779	1369
383021269780	1371
383021269781	1369
383021269782	1367
383021269783	1367
383021269784	1368
383021269785	1366
383021269786	1365
383021269787	1367
383021269788	1368
383021269789	1368
383021269790	1367
383021269791	1369
383021269792	1368
383021269793	1368
383021269794	1368
383021269795	1367
383021269796	1368
383021269797	1367
383021269798	1366
383021269799	1365
383021269800	1364
383021269801	1364
383021269802	1366
383021269803	1365
383021269804	1363
383021269805	1362
383021269806	1364
383021269807	1361
383021269808	1361
383021269809	1363
383021269810	1365
383021269811	1366
383021269812	1368
383021269813	1366
383021269814	1367
383021269815	1368
383021269816	1371
383021269817	1369
383021269818	1367
383021269819	1367
383021269820	1367
383021269821	1368
383021269822	1368
383021269823	1366
383021269824	1363
383021269825	1363
383021269826	1362
383021269827	1362
383021269828	1364
383021269829	1366
383021269830	1368
383021269831	1369
383021269832	1369
383021269833	1371
383021269834	1373
383021269835	1374
383021269836	1373
383021269837	1372
383021269838	1370
383021269839	1370
383021269840	1369
383021269841	1368
383021269842	1368
383021269843	1364
383021269844	1362
383021269845	1362
383021269846	1359
383021269847	1360
383021269848	1360
383021269849	1360
383021269850	1362
383021269851	1359
383021269852	1363
383021269853	1364
383021269854	1362
383021269855	1360
383021269856	1358
383021269857	1356
383021269858	1361
383021269859	1369
383021269860	1386
383021269861	1412
383021269862	1457
383021269863	1504
383021269864	1521
383021269865	1507
383021269866	1440
383021269867	1352
383021269868	1297
383021269869	1275
383021269870	1269
383021269871	1273
383021269872	1280
383021269873	1291
383021269874	1305
383021269875	1319
383021269876	1335
383021269877	1348
383021269878	1356
383021269879	1360
383021269880	1361
383021269881	1365
383021269882	1365
383021269883	1368
383021269884	1366
383021269885	1369
383021269886	1371
383021269887	1370
383021269888	1373
383021269889	1370
383021269890	1375
383021269891	1374
383021269892	1374
383021269893	1369
383021269894	1372
383021269895	1370
383021269896	1370
383021269897	1367
383021269898	1368
383021269899	1370
383021269900	1367
383021269901	1365
383021269902	1368
383021269903	1368
383021269904	1366
383021269905	1366
383021269906	1366
383021269907	1368
383021269908	1370
383021269909	1369
383021269910	1368
383021269911	1370
383021269912	1374
383021269913	1372
383021269914	1375
383021269915	1376
383021269916	1378
383021269917	1377
383021269918	1375
383021269919	1378
383021269920	1380
383021269921	1380
383021269922	1381
383021269923	1381
383021269924	1383
383021269925	1382
383021269926	1381
383021269927	1380
383021269928	1381
383021269929	1380
383021269930	1380
383021269931	1378
383021269932	1376
383021269933	1375
383021269934	1373
383021269935	1367
383021269936	1364
383021269937	1362
383021269938	1357
383021269939	1355
383021269940	1350
383021269941	1342
383021269942	1339
383021269943	1337
383021269944	1332
383021269945	1331
383021269946	1329
383021269947	1326
383021269948	1325
383021269949	1324
383021269950	1324
383021269951	1324
383021269952	1322
383021269953	1323
383021269954	1323
383021269955	1320
383021269956	1320
383021269957	1322
383021269958	1328
383021269959	1331
383021269960	1333
383021269961	1333
383021269962	1336
383021269963	1339
383021269964	1337
383021269965	1340
383021269966	1339
383021269967	1341
383021269968	1343
383021269969	1343
383021269970	1346
383021269971	1347
383021269972	1347
383021269973	1348
383021269974	1349
383021269975	1350
383021269976	1349
383021269977	1350
383021269978	1349
383021269979	1349
383021269980	1346
383021269981	1348
383021269982	1349
383021269983	1350
383021269984	1350
383021269985	1347
383021269986	1349
383021269987	1350
383021269988	1351
383021269989	1350
383021269990	1353
383021269991	1352
383021269992	1352
383021269993	1352
383021269994	1354
383021269995	1352
383021269996	1352
383021269997	1355
383021269998	1354
383021269999	1354
383021270000	1355
383021270001	1355
383021270002	1356
383021270003	1355
383021270004	1353
383021270005	1353
383021270006	1352
383021270007	1355
383021270008	1362
383021270009	1359
383021270010	1358
383021270011	1360
383021270012	1360
383021270013	1360
383021270014	1360
383021270015	1361
383021270016	1362
383021270017	1358
383021270018	1363
383021270019	1362
383021270020	1361
383021270021	1362
383021270022	1363
383021270023	1361
383021270024	1364
383021270025	1363
383021270026	1361
383021270027	1362
383021270028	1362
383021270029	1362
383021270030	1363
383021270031	1363
383021270032	1364
383021270033	1366
383021270034	1366
383021270035	1366
383021270036	1363
383021270037	1364
383021270038	1368
383021270039	1369
383021270040	1370
383021270041	1369
383021270042	1369
383021270043	1367
383021270044	1368
383021270045	1370
383021270046	1371
383021270047	1370
383021270048	1368
383021270049	1370
383021270050	1366
383021270051	1364
383021270052	1364
383021270053	1364
383021270054	1363
383021270055	1365
383021270056	1368
383021270057	1364
383021270058	1361
383021270059	1360
383021270060	1358
383021270061	1359
383021270062	1357
383021270063	1358
383021270064	1359
383021270065	1356
383021270066	1355
383021270067	1352
383021270068	1351
383021270069	1355
383021270070	1356
383021270071	1356
383021270072	1351
383021270073	1355
383021270074	1353
383021270075	1356
383021270076	1358
383021270077	1357
383021270078	1359
383021270079	1355
383021270080	1356
383021270081	1357
383021270082	1358
383021270083	1358
383021270084	1360
383021270085	1362
383021270086	1361
383021270087	1361
383021270088	1358
383021270089	1358
383021270090	1355
383021270091	1359
383021270092	1360
383021270093	1362
383021270094	1361
383021270095	1361
383021270096	1359
383021270097	1363
383021270098	1365
383021270099	1367
383021270100	1368
383021270101	1364
383021270102	1366
383021270103	1365
383021270104	1371
383021270105	1373
383021270106	1371
383021270107	1367
383021270108	1363
383021270109	1362
383021270110	1364
383021270111	1363
383021270112	1365
383021270113	1360
383021270114	1364
383021270115	1365
383021270116	1362
383021270117	1363
383021270118	1361
383021270119	1360
383021270120	1365
383021270121	1367
383021270122	1367
383021270123	1364
383021270124	1362
383021270125	1366
383021270126	1364
383021270127	1362
383021270128	1365
383021270129	1374
383021270130	1387
383021270131	1402
383021270132	1421
383021270133	1449
383021270134	1479
383021270135	1471
383021270136	1443
383021270137	1374
383021270138	1305
383021270139	1270
383021270140	1260
383021270141	1257
383021270142	1261
383021270143	1274
383021270144	1296
383021270145	1316
383021270146	1330
383021270147	1345
383021270148	1358
383021270149	1370
383021270150	1375
383021270151	1380
383021270152	1384
383021270153	1382
383021270154	1384
383021270155	1388
383021270156	1386
383021270157	1384
383021270158	1383
383021270159	1378
383021270160	1382
383021270161	1386
383021270162	1389
383021270163	1385
383021270164	1385
383021270165	1386
383021270166	1387
383021270167	1390
383021270168	1393
383021270169	1391
383021270170	1392
383021270171	1392
383021270172	1391
383021270173	1392
383021270174	1390
383021270175	1390
383021270176	1386
383021270177	1391
383021270178	1391
383021270179	1389
383021270180	1394
383021270181	1401
383021270182	1400
383021270183	1399
383021270184	1398
383021270185	1394
383021270186	1391
383021270187	1396
383021270188	1395
383021270189	1402
383021270190	1400
383021270191	1401
383021270192	1404
383021270193	1403
383021270194	1401
383021270195	1401
383021270196	1399
383021270197	1403
383021270198	1403
383021270199	1400
383021270200	1403
383021270201	1404
383021270202	1399
383021270203	1393
383021270204	1394
383021270205	1391
383021270206	1390
383021270207	1388
383021270208	1388
383021270209	1382
383021270210	1380
383021270211	1373
383021270212	1367
383021270213	1372
383021270214	1375
383021270215	1377
383021270216	1375
383021270217	1374
383021270218	1370
383021270219	1372
383021270220	1364
383021270221	1362
383021270222	1359
383021270223	1360
383021270224	1363
383021270225	1371
383021270226	1375
383021270227	1376
383021270228	1376
383021270229	1380
383021270230	1378
383021270231	1378
383021270232	1382
383021270233	1385
383021270234	1386
383021270235	1389
383021270236	1387
383021270237	1390
383021270238	1389
383021270239	1388
383021270240	1383
383021270241	1386
383021270242	1388
383021270243	1391
383021270244	1390
383021270245	1387
383021270246	1382
383021270247	1382
383021270248	1385
383021270249	1385
383021270250	1385
383021270251	1385
383021270252	1390
383021270253	1389
383021270254	1388
383021270255	1379
383021270256	1382
383021270257	1383
383021270258	1382
383021270259	1382
383021270260	1381
383021270261	1385
383021270262	1377
383021270263	1378
383021270264	1386
383021270265	1385
383021270266	1381
383021270267	1382
383021270268	1377
383021270269	1392
383021270270	1388
383021270271	1386
383021270272	1390
383021270273	1392
383021270274	1388
383021270275	1378
383021270276	1370
383021270277	1371
383021270278	1378
383021270279	1374
383021270280	1376
383021270281	1387
383021270282	1386
383021270283	1386
383021270284	1382
383021270285	1382
383021270286	1379
383021270287	1372
383021270288	1376
383021270289	1378
383021270290	1385
383021270291	1382
383021270292	1379
383021270293	1381
383021270294	1378
383021270295	1373
383021270296	1368
383021270297	1371
383021270298	1369
383021270299	1360
383021270300	1356
383021270301	1353
383021270302	1356
383021270303	1363
383021270304	1362
383021270305	1364
383021270306	1366
383021270307	1366
383021270308	1369
383021270309	1378
383021270310	1380
383021270311	1388
383021270312	1390
383021270313	1391
383021270314	1390
383021270315	1388
383021270316	1383
383021270317	1387
383021270318	1383
383021270319	1376
383021270320	1380
383021270321	1375
383021270322	1366
383021270323	1364
383021270324	1356
383021270325	1354
383021270326	1355
383021270327	1360
383021270328	1357
383021270329	1359
383021270330	1365
383021270331	1359
383021270332	1360
383021270333	1359
383021270334	1359
383021270335	1361
383021270336	1365
383021270337	1369
383021270338	1363
383021270339	1373
383021270340	1389
383021270341	1396
383021270342	1406
383021270343	1416
383021270344	1436
383021270345	1456
383021270346	1441
383021270347	1411
383021270348	1355
383021270349	1302
383021270350	1269
383021270351	1260
383021270352	1260
383021270353	1257
383021270354	1262
383021270355	1281
383021270356	1296
383021270357	1315
383021270358	1324
383021270359	1337
383021270360	1357
383021270361	1368
383021270362	1373
383021270363	1371
383021270364	1372
383021270365	1374
383021270366	1376
383021270367	1379
383021270368	1376
383021270369	1371
383021270370	1374
383021270371	1372
383021270372	1373
383021270373	1377
383021270374	1374
383021270375	1375
383021270376	1374
383021270377	1378
383021270378	1379
383021270379	1374
383021270380	1375
383021270381	1372
383021270382	1370
383021270383	1372
383021270384	1368
383021270385	1364
383021270386	1365
383021270387	1369
383021270388	1371
383021270389	1372
383021270390	1369
383021270391	1367
383021270392	1366
383021270393	1364
383021270394	1362
383021270395	1361
383021270396	1364
383021270397	1365
383021270398	1364
383021270399	1368
383021270400	1370
383021270401	1372
383021270402	1377
383021270403	1371
383021270404	1370
383021270405	1366
383021270406	1369
383021270407	1375
383021270408	1375
383021270409	1374
383021270410	1369
383021270411	1367
383021270412	1366
383021270413	1366
383021270414	1366
383021270415	1357
383021270416	1358
383021270417	1356
383021270418	1352
383021270419	1345
383021270420	1340
383021270421	1334
383021270422	1332
383021270423	1329
383021270424	1326
383021270425	1323
383021270426	1324
383021270427	1319
383021270428	1322
383021270429	1322
383021270430	1322
383021270431	1320
383021270432	1321
383021270433	1322
383021270434	1324
383021270435	1328
383021270436	1328
383021270437	1330
383021270438	1333
383021270439	1333
383021270440	1335
383021270441	1336
383021270442	1335
383021270443	1341
383021270444	1338
383021270445	1340
383021270446	1344
383021270447	1351
383021270448	1347
383021270449	1348
383021270450	1352
383021270451	1350
383021270452	1351
383021270453	1353
383021270454	1356
383021270455	1352
383021270456	1352
383021270457	1354
383021270458	1351
383021270459	1349
383021270460	1347
383021270461	1345
383021270462	1347
383021270463	1350
383021270464	1351
383021270465	1351
383021270466	1353
383021270467	1355
383021270468	1356
383021270469	1356
383021270470	1355
383021270471	1352
383021270472	1351
383021270473	1354
383021270474	1358
383021270475	1358
383021270476	1359
383021270477	1356
383021270478	1353
383021270479	1355
383021270480	1355
383021270481	1348
383021270482	1350
383021270483	1349
383021270484	1353
383021270485	1358
383021270486	1355
383021270487	1352
383021270488	1354
383021270489	1355
383021270490	1357
383021270491	1355
383021270492	1351
383021270493	1350
383021270494	1348
383021270495	1347
383021270496	1346
383021270497	1349
383021270498	1351
383021270499	1355
383021270500	1356
383021270501	1350
383021270502	1349
383021270503	1353
383021270504	1354
383021270505	1359
383021270506	1360
383021270507	1359
383021270508	1362
383021270509	1363
383021270510	1366
383021270511	1368
383021270512	1365
383021270513	1360
383021270514	1362
383021270515	1361
383021270516	1362
383021270517	1359
383021270518	1355
383021270519	1359
383021270520	1362
383021270521	1364
383021270522	1360
383021270523	1358
383021270524	1360
383021270525	1366
383021270526	1362
383021270527	1359
383021270528	1354
383021270529	1352
383021270530	1355
383021270531	1358
383021270532	1366
383021270533	1377
383021270534	1396
383021270535	1426
383021270536	1464
383021270537	1485
383021270538	1471
383021270539	1427
383021270540	1349
383021270541	1280
383021270542	1257
383021270543	1251
383021270544	1250
383021270545	1250
383021270546	1270
383021270547	1289
383021270548	1298
383021270549	1310
383021270550	1331
383021270551	1351
383021270552	1366
383021270553	1370
383021270554	1369
383021270555	1368
383021270556	1373
383021270557	1372
383021270558	1375
383021270559	1377
383021270560	1377
383021270561	1373
383021270562	1372
383021270563	1371
383021270564	1367
383021270565	1372
383021270566	1376
383021270567	1376
383021270568	1372
383021270569	1365
383021270570	1365
383021270571	1368
383021270572	1368
383021270573	1370
383021270574	1366
383021270575	1365
383021270576	1367
383021270577	1368
383021270578	1367
383021270579	1365
383021270580	1367
383021270581	1370
383021270582	1365
383021270583	1368
383021270584	1366
383021270585	1362
383021270586	1364
383021270587	1361
383021270588	1365
383021270589	1361
383021270590	1364
383021270591	1367
383021270592	1368
383021270593	1365
383021270594	1362
383021270595	1361
383021270596	1360
383021270597	1363
383021270598	1359
383021270599	1353
383021270600	1356
383021270601	1356
383021270602	1354
383021270603	1353
383021270604	1349
383021270605	1347
383021270606	1345
383021270607	1341
383021270608	1337
383021270609	1329
383021270610	1319
383021270611	1316
383021270612	1310
383021270613	1304
383021270614	1298
383021270615	1284
383021270616	1284
383021270617	1283
383021270618	1279
383021270619	1276
383021270620	1274
383021270621	1271
383021270622	1277
383021270623	1280
383021270624	1283
383021270625	1285
383021270626	1287
383021270627	1287
383021270628	1289
383021270629	1293
383021270630	1296
383021270631	1296
383021270632	1301
383021270633	1305
383021270634	1310
383021270635	1310
383021270636	1308
383021270637	1310
383021270638	1310
383021270639	1310
383021270640	1311
383021270641	1310
383021270642	1318
383021270643	1323
383021270644	1324
383021270645	1330
383021270646	1327
383021270647	1331
383021270648	1335
383021270649	1335
383021270650	1332
383021270651	1336
383021270652	1342
383021270653	1342
383021270654	1346
383021270655	1349
383021270656	1348
383021270657	1346
383021270658	1344
383021270659	1340
383021270660	1335
383021270661	1338
383021270662	1340
383021270663	1342
383021270664	1342
383021270665	1339
383021270666	1336
383021270667	1340
383021270668	1343
383021270669	1342
383021270670	1340
383021270671	1336
383021270672	1339
383021270673	1345
383021270674	1344
383021270675	1343
383021270676	1346
383021270677	1342
383021270678	1342
383021270679	1346
383021270680	1349
383021270681	1357
383021270682	1357
383021270683	1358
383021270684	1358
383021270685	1356
383021270686	1356
383021270687	1359
383021270688	1357
383021270689	1360
383021270690	1357
383021270691	1356
383021270692	1354
383021270693	1358
383021270694	1364
383021270695	1364
383021270696	1365
383021270697	1362
383021270698	1365
383021270699	1368
383021270700	1370
383021270701	1370
383021270702	1367
383021270703	1366
383021270704	1369
383021270705	1368
383021270706	1366
383021270707	1362
383021270708	1358
383021270709	1362
383021270710	1363
383021270711	1365
383021270712	1361
383021270713	1362
383021270714	1363
383021270715	1363
383021270716	1362
383021270717	1359
383021270718	1360
383021270719	1362
383021270720	1357
383021270721	1356
383021270722	1351
383021270723	1360
383021270724	1370
383021270725	1388
383021270726	1411
383021270727	1439
383021270728	1473
383021270729	1485
383021270730	1474
383021270731	1427
383021270732	1355
383021270733	1294
383021270734	1271
383021270735	1260
383021270736	1256
383021270737	1266
383021270738	1284
383021270739	1296
383021270740	1315
383021270741	1333
383021270742	1355
383021270743	1368
383021270744	1378
383021270745	1377
383021270746	1376
383021270747	1380
383021270748	1377
383021270749	1383
383021270750	1386
383021270751	1385
383021270752	1383
383021270753	1379
383021270754	1380
383021270755	1381
383021270756	1384
383021270757	1386
383021270758	1385
383021270759	1382
383021270760	1383
383021270761	1382
383021270762	1379
383021270763	1373
383021270764	1375
383021270765	1377
383021270766	1376
383021270767	1378
383021270768	1384
383021270769	1389
383021270770	1387
383021270771	1384
383021270772	1383
383021270773	1383
383021270774	1381
383021270775	1381
383021270776	1383
383021270777	1385
383021270778	1387
383021270779	1384
383021270780	1385
383021270781	1387
383021270782	1388
383021270783	1390
383021270784	1392
383021270785	1390
383021270786	1389
383021270787	1389
383021270788	1389
383021270789	1394
383021270790	1395
383021270791	1390
383021270792	1392
383021270793	1390
383021270794	1387
383021270795	1390
383021270796	1391
383021270797	1388
383021270798	1386
383021270799	1380
383021270800	1377
383021270801	1377
383021270802	1373
383021270803	1370
383021270804	1367
383021270805	1364
383021270806	1359
383021270807	1352
383021270808	1348
383021270809	1348
383021270810	1350
383021270811	1350
383021270812	1345
383021270813	1344
383021270814	1342
383021270815	1341
383021270816	1340
383021270817	1341
383021270818	1341
383021270819	1343
383021270820	1341
383021270821	1343
383021270822	1342
383021270823	1344
383021270824	1345
383021270825	1345
383021270826	1344
383021270827	1346
383021270828	1350
383021270829	1355
383021270830	1355
383021270831	1360
383021270832	1362
383021270833	1357
383021270834	1354
383021270835	1354
383021270836	1358
383021270837	1360
383021270838	1364
383021270839	1367
383021270840	1364
383021270841	1365
383021270842	1364
383021270843	1363
383021270844	1365
383021270845	1361
383021270846	1364
383021270847	1366
383021270848	1369
383021270849	1365
383021270850	1362
383021270851	1363
383021270852	1364
383021270853	1365
383021270854	1362
383021270855	1364
383021270856	1361
383021270857	1362
383021270858	1362
383021270859	1363
383021270860	1363
383021270861	1361
383021270862	1362
383021270863	1364
383021270864	1370
383021270865	1364
383021270866	1362
383021270867	1359
383021270868	1361
383021270869	1361
383021270870	1365
383021270871	1365
383021270872	1368
383021270873	1366
383021270874	1363
383021270875	1363
383021270876	1363
383021270877	1365
383021270878	1364
383021270879	1363
383021270880	1364
383021270881	1363
383021270882	1363
383021270883	1364
383021270884	1362
383021270885	1362
383021270886	1360
383021270887	1358
383021270888	1361
383021270889	1360
383021270890	1359
383021270891	1365
383021270892	1364
383021270893	1367
383021270894	1366
383021270895	1365
383021270896	1360
383021270897	1361
383021270898	1365
383021270899	1363
383021270900	1368
383021270901	1367
383021270902	1362
383021270903	1368
383021270904	1368
383021270905	1373
383021270906	1372
383021270907	1373
383021270908	1370
383021270909	1368
383021270910	1366
383021270911	1363
383021270912	1360
383021270913	1364
383021270914	1363
383021270915	1365
383021270916	1366
383021270917	1363
383021270918	1366
383021270919	1366
383021270920	1368
383021270921	1366
383021270922	1368
383021270923	1366
383021270924	1367
383021270925	1368
383021270926	1364
383021270927	1366
383021270928	1375
383021270929	1392
383021270930	1413
383021270931	1434
383021270932	1466
383021270933	1488
383021270934	1485
383021270935	1454
383021270936	1386
383021270937	1312
383021270938	1277
383021270939	1269
383021270940	1270
383021270941	1276
383021270942	1293
383021270943	1310
383021270944	1331
383021270945	1344
383021270946	1361
383021270947	1372
383021270948	1377
383021270949	1381
383021270950	1382
383021270951	1389
383021270952	1389
383021270953	1387
383021270954	1387
383021270955	1388
383021270956	1386
383021270957	1387
383021270958	1388
383021270959	1389
383021270960	1389
383021270961	1389
383021270962	1385
383021270963	1384
383021270964	1383
383021270965	1383
383021270966	1382
383021270967	1383
383021270968	1380
383021270969	1385
383021270970	1383
383021270971	1380
383021270972	1380
383021270973	1382
383021270974	1380
383021270975	1376
383021270976	1378
383021270977	1379
383021270978	1378
383021270979	1378
383021270980	1380
383021270981	1383
383021270982	1382
383021270983	1383
383021270984	1385
383021270985	1383
383021270986	1382
383021270987	1380
383021270988	1379
383021270989	1381
383021270990	1386
383021270991	1388
383021270992	1389
383021270993	1387
383021270994	1388
383021270995	1389
383021270996	1387
383021270997	1387
383021270998	1390
383021270999	1385
383021271000	1384
383021271001	1385
383021271002	1384
383021271003	1382
383021271004	1378
383021271005	1376
383021271006	1373
383021271007	1368
383021271008	1362
383021271009	1357
383021271010	1354
383021271011	1353
383021271012	1352
383021271013	1348
383021271014	1347
383021271015	1345
383021271016	1346
383021271017	1343
383021271018	1343
383021271019	1341
383021271020	1340
383021271021	1342
383021271022	1346
383021271023	1345
383021271024	1346
383021271025	1347
383021271026	1350
383021271027	1349
383021271028	1353
383021271029	1350
383021271030	1352
383021271031	1353
383021271032	1354
383021271033	1357
383021271034	1356
383021271035	1355
383021271036	1356
383021271037	1355
383021271038	1357
383021271039	1357
383021271040	1357
383021271041	1358
383021271042	1358
383021271043	1356
383021271044	1357
383021271045	1352
383021271046	1359
383021271047	1357
383021271048	1357
383021271049	1359
383021271050	1361
383021271051	1359
383021271052	1361
383021271053	1361
383021271054	1360
383021271055	1360
383021271056	1363
383021271057	1361
383021271058	1362
383021271059	1362
383021271060	1363
383021271061	1364
383021271062	1367
383021271063	1367
383021271064	1364
383021271065	1359
383021271066	1360
383021271067	1362
383021271068	1363
383021271069	1365
383021271070	1365
383021271071	1365
383021271072	1365
383021271073	1366
383021271074	1368
383021271075	1365
383021271076	1365
383021271077	1365
383021271078	1364
383021271079	1364
383021271080	1366
383021271081	1363
383021271082	1367
383021271083	1369
383021271084	1370
383021271085	1369
383021271086	1366
383021271087	1367
383021271088	1368
383021271089	1368
383021271090	1369
383021271091	1365
383021271092	1368
383021271093	1369
383021271094	1367
383021271095	1365
383021271096	1363
383021271097	1364
383021271098	1367
383021271099	1367
383021271100	1367
383021271101	1366
383021271102	1364
383021271103	1365
383021271104	1365
383021271105	1367
383021271106	1367
383021271107	1366
383021271108	1369
383021271109	1369
383021271110	1369
383021271111	1368
383021271112	1366
383021271113	1366
383021271114	1366
383021271115	1368
383021271116	1363
383021271117	1363
383021271118	1367
383021271119	1367
383021271120	1366
383021271121	1365
383021271122	1362
383021271123	1363
383021271124	1364
383021271125	1365
383021271126	1365
383021271127	1363
383021271128	1365
383021271129	1366
383021271130	1363
383021271131	1364
383021271132	1362
383021271133	1363
383021271134	1364
383021271135	1364
383021271136	1364
383021271137	1363
383021271138	1365
383021271139	1366
383021271140	1366
383021271141	1363
383021271142	1360
383021271143	1360
383021271144	1361
383021271145	1364
383021271146	1366
383021271147	1364
383021271148	1366
383021271149	1368
383021271150	1371
383021271151	1371
383021271152	1371
383021271153	1369
383021271154	1368
383021271155	1365
383021271156	1359
383021271157	1360
383021271158	1357
383021271159	1358
383021271160	1364
383021271161	1364
383021271162	1367
383021271163	1365
383021271164	1365
383021271165	1365
383021271166	1366
383021271167	1364
383021271168	1364
383021271169	1361
383021271170	1367
383021271171	1374
383021271172	1385
383021271173	1404
383021271174	1428
383021271175	1466
383021271176	1505
383021271177	1512
383021271178	1494
383021271179	1427
383021271180	1336
383021271181	1292
383021271182	1276
383021271183	1269
383021271184	1273
383021271185	1285
383021271186	1300
383021271187	1314
383021271188	1326
383021271189	1345
383021271190	1359
383021271191	1364
383021271192	1368
383021271193	1369
383021271194	1373
383021271195	1375
383021271196	1377
383021271197	1378
383021271198	1373
383021271199	1372
383021271200	1376
383021271201	1377
383021271202	1380
383021271203	1379
383021271204	1379
383021271205	1378
383021271206	1376
383021271207	1374
383021271208	1375
383021271209	1376
383021271210	1379
383021271211	1380
383021271212	1376
383021271213	1377
383021271214	1376
383021271215	1376
383021271216	1380
383021271217	1380
383021271218	1379
383021271219	1377
383021271220	1376
383021271221	1380
383021271222	1379
383021271223	1380
383021271224	1380
383021271225	1382
383021271226	1383
383021271227	1383
383021271228	1384
383021271229	1382
383021271230	1382
383021271231	1389
383021271232	1389
383021271233	1389
383021271234	1387
383021271235	1388
383021271236	1388
383021271237	1388
383021271238	1390
383021271239	1389
383021271240	1391
383021271241	1388
383021271242	1390
383021271243	1387
383021271244	1381
383021271245	1382
383021271246	1384
383021271247	1384
383021271248	1380
383021271249	1377
383021271250	1374
383021271251	1372
383021271252	1370
383021271253	1361
383021271254	1360
383021271255	1356
383021271256	1353
383021271257	1353
383021271258	1350
383021271259	1348
383021271260	1343
383021271261	1344
383021271262	1345
383021271263	1345
383021271264	1346
383021271265	1346
383021271266	1349
383021271267	1350
383021271268	1348
383021271269	1349
383021271270	1348
383021271271	1350
383021271272	1353
383021271273	1354
383021271274	1351
383021271275	1352
383021271276	1354
383021271277	1355
383021271278	1356
383021271279	1359
383021271280	1358
383021271281	1357
383021271282	1358
383021271283	1358
383021271284	1360
383021271285	1358
383021271286	1358
383021271287	1360
383021271288	1360
383021271289	1359
383021271290	1358
383021271291	1356
383021271292	1359
383021271293	1362
383021271294	1362
383021271295	1361
383021271296	1360
383021271297	1358
383021271298	1362
383021271299	1362
383021271300	1358
383021271301	1358
383021271302	1358
383021271303	1359
383021271304	1357
383021271305	1358
383021271306	1358
383021271307	1357
383021271308	1359
383021271309	1359
383021271310	1357
383021271311	1355
383021271312	1356
383021271313	1358
383021271314	1360
383021271315	1356
383021271316	1360
383021271317	1359
383021271318	1360
383021271319	1359
383021271320	1360
383021271321	1359
383021271322	1360
383021271323	1360
383021271324	1360
383021271325	1360
383021271326	1360
383021271327	1362
383021271328	1360
383021271329	1363
383021271330	1363
383021271331	1366
383021271332	1363
383021271333	1363
383021271334	1363
383021271335	1361
383021271336	1362
383021271337	1359
383021271338	1361
383021271339	1362
383021271340	1363
383021271341	1362
383021271342	1360
383021271343	1359
383021271344	1362
383021271345	1361
383021271346	1361
383021271347	1359
383021271348	1360
383021271349	1362
383021271350	1363
383021271351	1364
383021271352	1362
383021271353	1362
383021271354	1365
383021271355	1362
383021271356	1364
383021271357	1362
383021271358	1362
383021271359	1363
383021271360	1362
383021271361	1363
383021271362	1363
383021271363	1363
383021271364	1367
383021271365	1367
383021271366	1364
383021271367	1361
383021271368	1363
383021271369	1360
383021271370	1365
383021271371	1365
383021271372	1361
383021271373	1360
383021271374	1359
383021271375	1362
383021271376	1362
383021271377	1363
383021271378	1363
383021271379	1365
383021271380	1365
383021271381	1367
383021271382	1368
383021271383	1368
383021271384	1369
383021271385	1368
383021271386	1369
383021271387	1365
383021271388	1363
383021271389	1358
383021271390	1361
383021271391	1364
383021271392	1362
383021271393	1363
383021271394	1360
383021271395	1362
383021271396	1364
383021271397	1363
383021271398	1364
383021271399	1362
383021271400	1364
383021271401	1364
383021271402	1363
383021271403	1362
383021271404	1368
383021271405	1378
383021271406	1394
383021271407	1410
383021271408	1433
383021271409	1468
383021271410	1488
383021271411	1484
383021271412	1448
383021271413	1374
383021271414	1296
383021271415	1271
383021271416	1256
383021271417	1255
383021271418	1266
383021271419	1282
383021271420	1295
383021271421	1315
383021271422	1332
383021271423	1348
383021271424	1361
383021271425	1371
383021271426	1375
383021271427	1373
383021271428	1374
383021271429	1371
383021271430	1372
383021271431	1376
383021271432	1379
383021271433	1377
383021271434	1375
383021271435	1379
383021271436	1379
383021271437	1376
383021271438	1378
383021271439	1375
383021271440	1374
383021271441	1374
383021271442	1373
383021271443	1376
383021271444	1372
383021271445	1373
383021271446	1372
383021271447	1371
383021271448	1367
383021271449	1367
383021271450	1370
383021271451	1373
383021271452	1375
383021271453	1376
383021271454	1379
383021271455	1374
383021271456	1375
383021271457	1378
383021271458	1375
383021271459	1374
383021271460	1375
383021271461	1375
383021271462	1380
383021271463	1380
383021271464	1380
383021271465	1377
383021271466	1378
383021271467	1379
383021271468	1380
383021271469	1379
383021271470	1378
383021271471	1379
383021271472	1381
383021271473	1383
383021271474	1380
383021271475	1378
383021271476	1377
383021271477	1379
383021271478	1378
383021271479	1377
383021271480	1372
383021271481	1369
383021271482	1367
383021271483	1370
383021271484	1362
383021271485	1359
383021271486	1355
383021271487	1352
383021271488	1352
383021271489	1351
383021271490	1344
383021271491	1342
383021271492	1342
383021271493	1342
383021271494	1339
383021271495	1341
383021271496	1334
383021271497	1338
383021271498	1339
383021271499	1341
383021271500	1341
383021271501	1341
383021271502	1342
383021271503	1344
383021271504	1344
383021271505	1344
383021271506	1344
383021271507	1344
383021271508	1346
383021271509	1345
383021271510	1348
383021271511	1348
383021271512	1352
383021271513	1352
383021271514	1355
383021271515	1354
383021271516	1354
383021271517	1354
383021271518	1355
383021271519	1357
383021271520	1357
383021271521	1356
383021271522	1355
383021271523	1355
383021271524	1357
383021271525	1358
383021271526	1357
383021271527	1361
383021271528	1357
383021271529	1358
383021271530	1358
383021271531	1357
383021271532	1359
383021271533	1361
383021271534	1360
383021271535	1360
383021271536	1359
383021271537	1358
383021271538	1360
383021271539	1361
383021271540	1360
383021271541	1359
383021271542	1359
383021271543	1362
383021271544	1361
383021271545	1361
383021271546	1361
383021271547	1359
383021271548	1359
383021271549	1360
383021271550	1360
383021271551	1358
383021271552	1359
383021271553	1359
383021271554	1361
383021271555	1360
383021271556	1362
383021271557	1361
383021271558	1360
383021271559	1365
383021271560	1364
383021271561	1364
383021271562	1363
383021271563	1363
383021271564	1364
383021271565	1363
383021271566	1360
383021271567	1360
383021271568	1361
383021271569	1361
383021271570	1363
383021271571	1365
383021271572	1363
383021271573	1363
383021271574	1364
383021271575	1364
383021271576	1363
383021271577	1364
383021271578	1363
383021271579	1366
383021271580	1370
383021271581	1367
383021271582	1369
383021271583	1371
383021271584	1367
383021271585	1369
383021271586	1372
383021271587	1367
383021271588	1366
383021271589	1368
383021271590	1371
383021271591	1369
383021271592	1368
383021271593	1367
383021271594	1365
383021271595	1371
383021271596	1367
383021271597	1365
383021271598	1362
383021271599	1363
383021271600	1365
383021271601	1368
383021271602	1370
383021271603	1371
383021271604	1373
383021271605	1373
383021271606	1375
383021271607	1375
383021271608	1370
383021271609	1367
383021271610	1367
383021271611	1366
383021271612	1365
383021271613	1366
383021271614	1366
383021271615	1368
383021271616	1368
383021271617	1368
383021271618	1367
383021271619	1365
383021271620	1366
383021271621	1366
383021271622	1365
383021271623	1363
383021271624	1364
383021271625	1361
383021271626	1362
383021271627	1365
383021271628	1372
383021271629	1390
383021271630	1408
383021271631	1443
383021271632	1483
383021271633	1504
383021271634	1495
383021271635	1448
383021271636	1365
383021271637	1296
383021271638	1275
383021271639	1263
383021271640	1258
383021271641	1272
383021271642	1287
383021271643	1305
383021271644	1317
383021271645	1335
383021271646	1349
383021271647	1360
383021271648	1365
383021271649	1366
383021271650	1365
383021271651	1366
383021271652	1366
383021271653	1363
383021271654	1365
383021271655	1369
383021271656	1372
383021271657	1373
383021271658	1371
383021271659	1369
383021271660	1369
383021271661	1369
383021271662	1369
383021271663	1369
383021271664	1370
383021271665	1369
383021271666	1368
383021271667	1365
383021271668	1367
383021271669	1367
383021271670	1367
383021271671	1369
383021271672	1371
383021271673	1369
383021271674	1368
383021271675	1367
383021271676	1366
383021271677	1368
383021271678	1371
383021271679	1371
383021271680	1371
383021271681	1375
383021271682	1378
383021271683	1376
383021271684	1372
383021271685	1370
383021271686	1372
383021271687	1374
383021271688	1374
383021271689	1376
383021271690	1376
383021271691	1379
383021271692	1378
383021271693	1377
383021271694	1376
383021271695	1374
383021271696	1379
383021271697	1377
383021271698	1377
383021271699	1376
383021271700	1376
383021271701	1378
383021271702	1375
383021271703	1372
383021271704	1372
383021271705	1369
383021271706	1366
383021271707	1363
383021271708	1359
383021271709	1355
383021271710	1353
383021271711	1351
383021271712	1349
383021271713	1346
383021271714	1342
383021271715	1343
383021271716	1341
383021271717	1340
383021271718	1339
383021271719	1339
383021271720	1337
383021271721	1338
383021271722	1339
383021271723	1344
383021271724	1344
383021271725	1345
383021271726	1344
383021271727	1347
383021271728	1348
383021271729	1351
383021271730	1351
383021271731	1352
383021271732	1352
383021271733	1356
383021271734	1356
383021271735	1355
383021271736	1357
383021271737	1355
383021271738	1357
383021271739	1354
383021271740	1355
383021271741	1355
383021271742	1357
383021271743	1360
383021271744	1360
383021271745	1359
383021271746	1361
383021271747	1360
383021271748	1362
383021271749	1363
383021271750	1362
383021271751	1361
383021271752	1359
383021271753	1361
383021271754	1361
383021271755	1361
383021271756	1362
383021271757	1363
383021271758	1362
383021271759	1363
383021271760	1363
383021271761	1363
383021271762	1362
383021271763	1364
383021271764	1364
383021271765	1363
383021271766	1363
383021271767	1362
383021271768	1363
383021271769	1364
383021271770	1363
383021271771	1362
383021271772	1359
383021271773	1359
383021271774	1364
383021271775	1363
383021271776	1362
383021271777	1359
383021271778	1362
383021271779	1365
383021271780	1363
383021271781	1364
383021271782	1361
383021271783	1363
383021271784	1363
383021271785	1361
383021271786	1363
383021271787	1363
383021271788	1363
383021271789	1364
383021271790	1364
383021271791	1366
383021271792	1362
383021271793	1363
383021271794	1363
383021271795	1365
383021271796	1364
383021271797	1364
383021271798	1364
383021271799	1363
383021271800	1363
383021271801	1363
383021271802	1367
383021271803	1364
383021271804	1366
383021271805	1365
383021271806	1364
383021271807	1364
383021271808	1361
383021271809	1365
383021271810	1364
383021271811	1365
383021271812	1364
383021271813	1363
383021271814	1361
383021271815	1361
383021271816	1361
383021271817	1360
383021271818	1360
383021271819	1363
383021271820	1365
383021271821	1368
383021271822	1367
383021271823	1367
383021271824	1368
383021271825	1369
383021271826	1368
383021271827	1367
383021271828	1366
383021271829	1365
383021271830	1364
383021271831	1363
383021271832	1365
383021271833	1362
383021271834	1362
383021271835	1363
383021271836	1362
383021271837	1362
383021271838	1360
383021271839	1362
383021271840	1361
383021271841	1363
383021271842	1363
383021271843	1360
383021271844	1359
383021271845	1364
383021271846	1378
383021271847	1396
383021271848	1420
383021271849	1456
383021271850	1492
383021271851	1496
383021271852	1471
383021271853	1399
383021271854	1318
383021271855	1280
383021271856	1266
383021271857	1264
383021271858	1266
383021271859	1285
383021271860	1299
383021271861	1315
383021271862	1329
383021271863	1344
383021271864	1362
383021271865	1367
383021271866	1368
383021271867	1369
383021271868	1371
383021271869	1373
383021271870	1373
383021271871	1374
383021271872	1374
383021271873	1372
383021271874	1374
383021271875	1375
383021271876	1374
383021271877	1375
383021271878	1374
383021271879	1377
383021271880	1374
383021271881	1374
383021271882	1374
383021271883	1371
383021271884	1371
383021271885	1372
383021271886	1374
383021271887	1370
383021271888	1372
383021271889	1367
383021271890	1368
383021271891	1367
383021271892	1369
383021271893	1369
383021271894	1368
383021271895	1368
383021271896	1367
383021271897	1365
383021271898	1369
383021271899	1372
383021271900	1373
383021271901	1371
383021271902	1373
383021271903	1373
383021271904	1375
383021271905	1374
383021271906	1373
383021271907	1373
383021271908	1374
383021271909	1375
383021271910	1376
383021271911	1376
383021271912	1377
383021271913	1380
383021271914	1376
383021271915	1375
383021271916	1375
383021271917	1374
383021271918	1372
383021271919	1371
383021271920	1371
383021271921	1372
383021271922	1370
383021271923	1367
383021271924	1364
383021271925	1361
383021271926	1357
383021271927	1354
383021271928	1351
383021271929	1349
383021271930	1346
383021271931	1343
383021271932	1341
383021271933	1338
383021271934	1336
383021271935	1337
383021271936	1339
383021271937	1337
383021271938	1336
383021271939	1339
383021271940	1338
383021271941	1338
383021271942	1341
383021271943	1343
383021271944	1346
383021271945	1345
383021271946	1348
383021271947	1350
383021271948	1350
383021271949	1349
383021271950	1350
383021271951	1349
383021271952	1349
383021271953	1351
383021271954	1355
383021271955	1355
383021271956	1355
383021271957	1356
383021271958	1358
383021271959	1356
383021271960	1359
383021271961	1356
383021271962	1357
383021271963	1358
383021271964	1358
383021271965	1360
383021271966	1358
383021271967	1358
383021271968	1359
383021271969	1360
383021271970	1356
383021271971	1356
383021271972	1359
383021271973	1359
383021271974	1357
383021271975	1357
383021271976	1358
383021271977	1358
383021271978	1359
383021271979	1359
383021271980	1357
383021271981	1358
383021271982	1359
383021271983	1358
383021271984	1359
383021271985	1360
383021271986	1360
383021271987	1358
383021271988	1359
383021271989	1361
383021271990	1361
383021271991	1357
383021271992	1357
383021271993	1360
383021271994	1361
383021271995	1361
383021271996	1361
383021271997	1362
383021271998	1361
383021271999	1359
383021272000	1363
383021272001	1360
383021272002	1361
383021272003	1363
383021272004	1361
383021272005	1362
383021272006	1361
383021272007	1362
383021272008	1361
383021272009	1360
383021272010	1365
383021272011	1364
383021272012	1363
383021272013	1365
383021272014	1362
383021272015	1366
383021272016	1362
383021272017	1364
383021272018	1364
383021272019	1367
383021272020	1367
383021272021	1364
383021272022	1364
383021272023	1362
383021272024	1363
383021272025	1364
383021272026	1363
383021272027	1362
383021272028	1368
383021272029	1368
383021272030	1370
383021272031	1368
383021272032	1369
383021272033	1369
383021272034	1367
383021272035	1364
383021272036	1362
383021272037	1360
383021272038	1360
383021272039	1362
383021272040	1363
383021272041	1363
383021272042	1362
383021272043	1362
383021272044	1362
383021272045	1361
383021272046	1361
383021272047	1360
383021272048	1364
383021272049	1361
383021272050	1359
383021272051	1358
383021272052	1359
383021272053	1368
383021272054	1386
383021272055	1404
383021272056	1438
383021272057	1472
383021272058	1489
383021272059	1476
383021272060	1425
383021272061	1342
383021272062	1283
383021272063	1268
383021272064	1261
383021272065	1261
383021272066	1275
383021272067	1288
383021272068	1307
383021272069	1324
383021272070	1337
383021272071	1354
383021272072	1366
383021272073	1373
383021272074	1373
383021272075	1375
383021272076	1373
383021272077	1372
383021272078	1373
383021272079	1373
383021272080	1377
383021272081	1377
383021272082	1374
383021272083	1377
383021272084	1376
383021272085	1378
383021272086	1375
383021272087	1376
383021272088	1377
383021272089	1374
383021272090	1373
383021272091	1377
383021272092	1371
383021272093	1370
383021272094	1372
383021272095	1369
383021272096	1371
383021272097	1374
383021272098	1371
383021272099	1372
383021272100	1374
383021272101	1373
383021272102	1375
383021272103	1374
383021272104	1374
383021272105	1372
383021272106	1373
383021272107	1372
383021272108	1373
383021272109	1373
383021272110	1379
383021272111	1378
383021272112	1380
383021272113	1377
383021272114	1379
383021272115	1380
383021272116	1383
383021272117	1380
383021272118	1382
383021272119	1380
383021272120	1380
383021272121	1380
383021272122	1382
383021272123	1381
383021272124	1380
383021272125	1376
383021272126	1378
383021272127	1377
383021272128	1377
383021272129	1373
383021272130	1370
383021272131	1364
383021272132	1362
383021272133	1360
383021272134	1357
383021272135	1352
383021272136	1349
383021272137	1349
383021272138	1343
383021272139	1346
383021272140	1345
383021272141	1342
383021272142	1340
383021272143	1339
383021272144	1341
383021272145	1342
383021272146	1339
383021272147	1342
383021272148	1343
383021272149	1343
383021272150	1344
383021272151	1344
383021272152	1349
383021272153	1350
383021272154	1349
383021272155	1350
383021272156	1350
383021272157	1352
383021272158	1352
383021272159	1354
383021272160	1356
383021272161	1356
383021272162	1355
383021272163	1355
383021272164	1356
383021272165	1356
383021272166	1355
383021272167	1354
383021272168	1356
383021272169	1355
383021272170	1356
383021272171	1358
383021272172	1358
383021272173	1360
383021272174	1360
383021272175	1357
383021272176	1358
383021272177	1360
383021272178	1359
383021272179	1362
383021272180	1357
383021272181	1358
383021272182	1360
383021272183	1359
383021272184	1362
383021272185	1364
383021272186	1363
383021272187	1360
383021272188	1363
383021272189	1366
383021272190	1365
383021272191	1363
383021272192	1363
383021272193	1366
383021272194	1367
383021272195	1362
383021272196	1363
383021272197	1366
383021272198	1366
383021272199	1364
383021272200	1365
383021272201	1362
383021272202	1361
383021272203	1361
383021272204	1361
383021272205	1363
383021272206	1363
383021272207	1362
383021272208	1363
383021272209	1360
383021272210	1360
383021272211	1361
383021272212	1364
383021272213	1364
383021272214	1366
383021272215	1364
383021272216	1363
383021272217	1362
383021272218	1361
383021272219	1365
383021272220	1366
383021272221	1363
383021272222	1364
383021272223	1363
383021272224	1365
383021272225	1367
383021272226	1370
383021272227	1371
383021272228	1369
383021272229	1368
383021272230	1366
383021272231	1365
383021272232	1363
383021272233	1365
383021272234	1361
383021272235	1361
383021272236	1360
383021272237	1360
383021272238	1361
383021272239	1359
383021272240	1359
383021272241	1361
383021272242	1360
383021272243	1362
383021272244	1360
383021272245	1363
383021272246	1364
383021272247	1362
383021272248	1363
383021272249	1372
383021272250	1384
383021272251	1405
383021272252	1423
383021272253	1455
383021272254	1480
383021272255	1476
383021272256	1441
383021272257	1367
383021272258	1291
383021272259	1262
383021272260	1253
383021272261	1256
383021272262	1261
383021272263	1276
383021272264	1295
383021272265	1312
383021272266	1331
383021272267	1346
383021272268	1362
383021272269	1372
383021272270	1376
383021272271	1376
383021272272	1379
383021272273	1379
383021272274	1378
383021272275	1377
383021272276	1379
383021272277	1380
383021272278	1378
383021272279	1376
383021272280	1380
383021272281	1379
383021272282	1380
383021272283	1379
383021272284	1375
383021272285	1375
383021272286	1376
383021272287	1374
383021272288	1374
383021272289	1371
383021272290	1373
383021272291	1373
383021272292	1374
383021272293	1373
383021272294	1374
383021272295	1376
383021272296	1373
383021272297	1374
383021272298	1373
383021272299	1372
383021272300	1375
383021272301	1377
383021272302	1378
383021272303	1372
383021272304	1374
383021272305	1374
383021272306	1375
383021272307	1377
383021272308	1377
383021272309	1380
383021272310	1377
383021272311	1380
383021272312	1378
383021272313	1378
383021272314	1378
383021272315	1378
383021272316	1379
383021272317	1379
383021272318	1378
383021272319	1377
383021272320	1378
383021272321	1374
383021272322	1375
383021272323	1373
383021272324	1369
383021272325	1368
383021272326	1366
383021272327	1363
383021272328	1362
383021272329	1358
383021272330	1355
383021272331	1351
383021272332	1348
383021272333	1345
383021272334	1343
383021272335	1338
383021272336	1338
383021272337	1338
383021272338	1337
383021272339	1341
383021272340	1341
383021272341	1338
383021272342	1342
383021272343	1340
383021272344	1343
383021272345	1346
383021272346	1343
383021272347	1344
383021272348	1343
383021272349	1347
383021272350	1347
383021272351	1348
383021272352	1350
383021272353	1349
383021272354	1351
383021272355	1351
383021272356	1351
383021272357	1352
383021272358	1357
383021272359	1354
383021272360	1355
383021272361	1355
383021272362	1356
383021272363	1357
383021272364	1357
383021272365	1356
383021272366	1356
383021272367	1355
383021272368	1357
383021272369	1358
383021272370	1359
383021272371	1359
383021272372	1361
383021272373	1359
383021272374	1361
383021272375	1362
383021272376	1359
383021272377	1358
383021272378	1362
383021272379	1360
383021272380	1359
383021272381	1357
383021272382	1357
383021272383	1357
383021272384	1359
383021272385	1358
383021272386	1358
383021272387	1360
383021272388	1363
383021272389	1360
383021272390	1360
383021272391	1360
383021272392	1358
383021272393	1360
383021272394	1360
383021272395	1359
383021272396	1359
383021272397	1359
383021272398	1360
383021272399	1360
383021272400	1360
383021272401	1361
383021272402	1360
383021272403	1361
383021272404	1359
383021272405	1360
383021272406	1359
383021272407	1358
383021272408	1358
383021272409	1360
383021272410	1361
383021272411	1361
383021272412	1362
383021272413	1361
383021272414	1362
383021272415	1361
383021272416	1363
383021272417	1361
383021272418	1363
383021272419	1360
383021272420	1363
383021272421	1359
383021272422	1358
383021272423	1359
383021272424	1361
383021272425	1364
383021272426	1367
383021272427	1367
383021272428	1369
383021272429	1367
383021272430	1367
383021272431	1365
383021272432	1361
383021272433	1357
383021272434	1360
383021272435	1360
383021272436	1362
383021272437	1361
383021272438	1362
383021272439	1359
383021272440	1361
383021272441	1360
383021272442	1360
383021272443	1361
383021272444	1358
383021272445	1360
383021272446	1360
383021272447	1358
383021272448	1359
383021272449	1361
383021272450	1367
383021272451	1380
383021272452	1399
383021272453	1424
383021272454	1459
383021272455	1488
383021272456	1485
383021272457	1442
383021272458	1363
383021272459	1291
383021272460	1266
383021272461	1258
383021272462	1258
383021272463	1271
383021272464	1287
383021272465	1306
383021272466	1319
383021272467	1337
383021272468	1355
383021272469	1366
383021272470	1373
383021272471	1376
383021272472	1372
383021272473	1372
383021272474	1373
383021272475	1374
383021272476	1373
383021272477	1375
383021272478	1376
383021272479	1376
383021272480	1377
383021272481	1377
383021272482	1376
383021272483	1375
383021272484	1375
383021272485	1378
383021272486	1371
383021272487	1375
383021272488	1371
383021272489	1372
383021272490	1374
383021272491	1373
383021272492	1370
383021272493	1371
383021272494	1372
383021272495	1371
383021272496	1372
383021272497	1369
383021272498	1370
383021272499	1369
383021272500	1367
383021272501	1372
383021272502	1371
383021272503	1372
383021272504	1370
383021272505	1373
383021272506	1375
383021272507	1374
383021272508	1375
383021272509	1376
383021272510	1374
383021272511	1372
383021272512	1377
383021272513	1376
383021272514	1376
383021272515	1377
383021272516	1379
383021272517	1376
383021272518	1378
383021272519	1377
383021272520	1377
383021272521	1377
383021272522	1377
383021272523	1376
383021272524	1373
383021272525	1372
383021272526	1370
383021272527	1368
383021272528	1365
383021272529	1361
383021272530	1358
383021272531	1355
383021272532	1350
383021272533	1351
383021272534	1350
383021272535	1349
383021272536	1346
383021272537	1345
383021272538	1342
383021272539	1340
383021272540	1341
383021272541	1341
383021272542	1342
383021272543	1345
383021272544	1343
383021272545	1344
383021272546	1346
383021272547	1347
383021272548	1350
383021272549	1348
383021272550	1350
383021272551	1351
383021272552	1351
383021272553	1351
383021272554	1353
383021272555	1353
383021272556	1354
383021272557	1354
383021272558	1355
383021272559	1357
383021272560	1357
383021272561	1357
383021272562	1358
383021272563	1356
383021272564	1360
383021272565	1360
383021272566	1359
383021272567	1359
383021272568	1360
383021272569	1360
383021272570	1360
383021272571	1360
383021272572	1360
383021272573	1361
383021272574	1362
383021272575	1362
383021272576	1359
383021272577	1358
383021272578	1361
383021272579	1361
383021272580	1361
383021272581	1361
383021272582	1361
383021272583	1363
383021272584	1362
383021272585	1363
383021272586	1363
383021272587	1361
383021272588	1362
383021272589	1361
383021272590	1362
383021272591	1361
383021272592	1360
383021272593	1360
383021272594	1362
383021272595	1362
383021272596	1358
383021272597	1360
383021272598	1361
383021272599	1363
383021272600	1364
383021272601	1364
383021272602	1362
383021272603	1364
383021272604	1365
383021272605	1364
383021272606	1364
383021272607	1364
383021272608	1366
383021272609	1363
383021272610	1365
383021272611	1364
383021272612	1364
383021272613	1364
383021272614	1361
383021272615	1364
383021272616	1361
383021272617	1364
383021272618	1363
383021272619	1365
383021272620	1366
383021272621	1365
383021272622	1365
383021272623	1361
383021272624	1363
383021272625	1366
383021272626	1365
383021272627	1364
383021272628	1367
383021272629	1365
383021272630	1367
383021272631	1372
383021272632	1370
383021272633	1371
383021272634	1371
383021272635	1372
383021272636	1370
383021272637	1370
383021272638	1368
383021272639	1366
383021272640	1365
383021272641	1365
383021272642	1363
383021272643	1363
383021272644	1364
383021272645	1363
383021272646	1364
383021272647	1364
383021272648	1364
383021272649	1364
383021272650	1365
383021272651	1364
383021272652	1365
383021272653	1364
383021272654	1362
383021272655	1365
383021272656	1373
383021272657	1384
383021272658	1403
383021272659	1427
383021272660	1470
383021272661	1492
383021272662	1483
383021272663	1436
383021272664	1355
383021272665	1289
383021272666	1268
383021272667	1261
383021272668	1260
383021272669	1275
383021272670	1295
383021272671	1309
383021272672	1326
383021272673	1343
383021272674	1358
383021272675	1369
383021272676	1373
383021272677	1376
383021272678	1376
383021272679	1376
383021272680	1376
383021272681	1376
383021272682	1376
383021272683	1378
383021272684	1376
383021272685	1375
383021272686	1377
383021272687	1379
383021272688	1378
383021272689	1378
383021272690	1376
383021272691	1376
383021272692	1378
383021272693	1378
383021272694	1377
383021272695	1378
383021272696	1377
383021272697	1376
383021272698	1374
383021272699	1374
383021272700	1373
383021272701	1372
383021272702	1372
383021272703	1374
383021272704	1372
383021272705	1374
383021272706	1374
383021272707	1374
383021272708	1374
383021272709	1376
383021272710	1376
383021272711	1378
383021272712	1378
383021272713	1378
383021272714	1377
383021272715	1377
383021272716	1376
383021272717	1378
383021272718	1377
383021272719	1375
383021272720	1376
383021272721	1377
383021272722	1378
383021272723	1379
383021272724	1382
383021272725	1379
383021272726	1377
383021272727	1378
383021272728	1376
383021272729	1374
383021272730	1376
383021272731	1374
383021272732	1374
383021272733	1370
383021272734	1366
383021272735	1361
383021272736	1356
383021272737	1353
383021272738	1352
383021272739	1349
383021272740	1346
383021272741	1342
383021272742	1342
383021272743	1342
383021272744	1340
383021272745	1341
383021272746	1340
383021272747	1341
383021272748	1341
383021272749	1342
383021272750	1343
383021272751	1343
383021272752	1344
383021272753	1348
383021272754	1348
383021272755	1348
383021272756	1349
383021272757	1352
383021272758	1352
383021272759	1354
383021272760	1355
383021272761	1355
383021272762	1355
383021272763	1355
383021272764	1357
383021272765	1356
383021272766	1358
383021272767	1357
383021272768	1356
383021272769	1356
383021272770	1355
383021272771	1356
383021272772	1355
383021272773	1359
383021272774	1360
383021272775	1358
383021272776	1357
383021272777	1358
383021272778	1360
383021272779	1360
383021272780	1359
383021272781	1358
383021272782	1360
383021272783	1360
383021272784	1357
383021272785	1361
383021272786	1358
383021272787	1359
383021272788	1359
383021272789	1355
383021272790	1358
383021272791	1358
383021272792	1360
383021272793	1363
383021272794	1364
383021272795	1362
383021272796	1359
383021272797	1358
383021272798	1362
383021272799	1361
383021272800	1364
383021272801	1364
383021272802	1365
383021272803	1361
383021272804	1362
383021272805	1362
383021272806	1362
383021272807	1363
383021272808	1361
383021272809	1363
383021272810	1362
383021272811	1361
383021272812	1365
383021272813	1363
383021272814	1364
383021272815	1365
383021272816	1364
383021272817	1364
383021272818	1365
383021272819	1366
383021272820	1363
383021272821	1360
383021272822	1362
383021272823	1364
383021272824	1366
383021272825	1366
383021272826	1365
383021272827	1367
383021272828	1366
383021272829	1367
383021272830	1366
383021272831	1365
383021272832	1364
383021272833	1365
383021272834	1365
383021272835	1364
383021272836	1364
383021272837	1363
383021272838	1363
383021272839	1362
383021272840	1363
383021272841	1362
383021272842	1363
383021272843	1367
383021272844	1368
383021272845	1370
383021272846	1367
383021272847	1369
383021272848	1369
383021272849	1372
